#F Al.txt
#S 1 File written by xplot on Thu Mar 02 14:21:22 2023
#N 8
#L    PhotonEnergy [eV]  XCOM:Rayleigh(coherent)[cm^-1]  XCOM:Compton(incoherent)[cm^-1]  XCOM:PhotoElectric[cm^-1]  XCOM:PairProduction(NuclearField)[cm^-1]  XCOM:PairProduction(ElectronField)[cm^-1]  XCOM:TotalCrossSection[cm^-1]  XCOM:TotalCrossSection-Coh[cm^-1]
1000 6.09255 0.0385319 3193.92 0 0 3199.95 3193.92 
2000 4.96323 0.0911171 6104.6 0 0 6110.63 6104.6 
3000 4.11112 0.127757 2123.65 0 0 2127.87 2123.65 
4000 3.49764 0.156864 969.626 0 0 973.241 969.626 
5000 3.01193 0.183259 518.982 0 0 522.176 519.162 
6000 2.60214 0.207786 308.484 0 0 311.317 308.665 
7000 2.2507 0.230368 197.633 0 0 200.104 197.849 
8000 1.95191 0.250873 133.662 0 0 135.892 133.904 
9000 1.6998 0.269306 94.4478 0 0 96.4365 94.7225 
10000 1.48849 0.285645 69.0007 0 0 70.7483 69.302 
11000 1.31278 0.299953 51.9395 0 0 53.5514 52.2402 
12000 1.16508 0.312567 39.9491 0 0 41.4275 40.2615 
13000 1.04054 0.323615 31.3464 0 0 32.713 31.6719 
14000 0.936303 0.333181 25.0572 0 0 26.3258 25.3909 
15000 0.84669 0.341569 20.2904 0 0 21.4776 20.6339 
16000 0.770584 0.348802 16.6758 0 0 17.7921 17.0209 
17000 0.70447 0.355188 13.8389 0 0 14.8984 14.1944 
18000 0.647048 0.36077 11.6061 0 0 12.6143 11.9676 
19000 0.59687 0.365721 9.81776 0 0 10.7847 10.1854 
20000 0.552367 0.370133 8.37048 0 0 9.2925 8.73808 
21000 0.513158 0.374046 7.1983 0 0 8.08445 7.57192 
22000 0.478313 0.377554 6.23115 0 0 7.0843 6.60478 
23000 0.446799 0.380708 5.41717 0 0 6.24196 5.79805 
24000 0.418728 0.383539 4.74654 0 0 5.54861 5.13007 
25000 0.393357 0.386057 4.18 0 0 4.95942 4.56587 
26000 0.37018 0.38834 3.69623 0 0 4.45467 4.08473 
27000 0.34909 0.390375 3.28351 0 0 4.02317 3.67376 
28000 0.329797 0.392229 2.92856 0 0 3.65021 3.32047 
29000 0.312091 0.393921 2.62135 0 0 3.32717 3.01485 
30000 0.295769 0.395383 2.35506 0 0 3.04628 2.75039 
31000 0.280739 0.396721 2.12382 0 0 2.80139 2.5206 
32000 0.266917 0.397897 1.92162 0 0 2.58641 2.31939 
33000 0.25403 0.398952 1.74372 0 0 2.39644 2.14245 
34000 0.242098 0.399901 1.58604 0 0 2.22822 1.98618 
35000 0.230967 0.40076 1.44752 0 0 2.07889 1.84808 
36000 0.220512 0.401475 1.32249 0 0 1.94458 1.72394 
37000 0.210853 0.402069 1.21317 0 0 1.82592 1.61512 
38000 0.201697 0.402652 1.1139 0 0 1.71806 1.51642 
39000 0.193228 0.40306 1.0262 0 0 1.62249 1.42953 
40000 0.185187 0.403458 0.946123 0 0 1.53489 1.34988 
41000 0.177693 0.403734 0.874899 0 0 1.45659 1.27866 
42000 0.170598 0.404014 0.809996 0 0 1.38491 1.21436 
43000 0.163917 0.40416 0.751642 0 0 1.31996 1.156 
44000 0.157616 0.404272 0.698542 0 0 1.26043 1.1029 
45000 0.151642 0.404302 0.650122 0 0 1.20611 1.05448 
46000 0.145996 0.404302 0.605921 0 0 1.15629 1.01014 
47000 0.140662 0.404302 0.56541 0 0 1.11021 0.969425 
48000 0.135604 0.40418 0.528467 0 0 1.06807 0.932526 
49000 0.130871 0.404048 0.494867 0 0 1.02979 0.898729 
50000 0.12631 0.40388 0.463781 0 0 0.993731 0.867782 
51000 0.122 0.403666 0.435309 0 0 0.961104 0.838759 
52000 0.117925 0.403416 0.409116 0 0 0.93058 0.812447 
53000 0.114017 0.403119 0.384807 0 0 0.901755 0.787708 
54000 0.110322 0.402825 0.362468 0 0 0.875805 0.765232 
55000 0.106771 0.402481 0.341639 0 0 0.85119 0.744057 
56000 0.103392 0.402143 0.322322 0 0 0.828098 0.724345 
57000 0.100208 0.40176 0.304631 0 0 0.806681 0.706218 
58000 0.0971735 0.401336 0.288154 0 0 0.786583 0.689356 
59000 0.0942396 0.400911 0.272779 0 0 0.76773 0.673689 
60000 0.0914184 0.400445 0.258225 0 0 0.75027 0.65867 
61000 0.0887398 0.399974 0.245022 0 0 0.733503 0.644861 
62000 0.0861795 0.399467 0.232453 0 0 0.718047 0.631806 
63000 0.0837445 0.398966 0.220752 0 0 0.703647 0.619426 
64000 0.0813928 0.398428 0.209876 0 0 0.689929 0.608158 
65000 0.0791523 0.397896 0.199664 0 0 0.676793 0.597519 
66000 0.0769921 0.397345 0.19008 0 0 0.664499 0.587398 
67000 0.0749156 0.39677 0.181081 0 0 0.652948 0.577791 
68000 0.0729375 0.396172 0.172617 0 0 0.641907 0.568729 
69000 0.0710338 0.395583 0.164727 0 0 0.63148 0.560295 
70000 0.0691788 0.394971 0.157273 0 0 0.621455 0.552244 
71000 0.067388 0.39435 0.150212 0 0 0.61189 0.544549 
72000 0.0656849 0.393738 0.143531 0 0 0.602894 0.537212 
73000 0.0640553 0.393099 0.13734 0 0 0.594474 0.530419 
74000 0.0624706 0.392465 0.131448 0 0 0.586384 0.523891 
75000 0.0609308 0.391835 0.125831 0 0 0.578596 0.517609 
76000 0.0594903 0.391175 0.120589 0 0 0.571249 0.511748 
77000 0.0580885 0.390525 0.115633 0 0 0.564223 0.506133 
78000 0.0567184 0.389879 0.110893 0 0 0.557442 0.500711 
79000 0.0554061 0.389205 0.106452 0 0 0.551019 0.495597 
80000 0.0541279 0.388513 0.102145 0 0 0.544774 0.490658 
81000 0.0529002 0.387818 0.0981007 0 0 0.538831 0.485977 
82000 0.0517291 0.387174 0.0943485 0 0 0.533259 0.481543 
83000 0.0505819 0.386499 0.0907383 0 0 0.527823 0.477237 
84000 0.0494627 0.385787 0.0872947 0 0 0.522545 0.473082 
85000 0.0484007 0.385122 0.0840463 0 0 0.517563 0.469168 
86000 0.0473579 0.384452 0.0808833 0 0 0.512687 0.465342 
87000 0.0463511 0.38373 0.0779243 0 0 0.508032 0.461698 
88000 0.0453755 0.383036 0.0750953 0 0 0.503528 0.458173 
89000 0.0444275 0.382366 0.0723817 0 0 0.499158 0.454754 
90000 0.0435227 0.381681 0.0698602 0 0 0.49504 0.451541 
91000 0.0426306 0.380991 0.0673932 0 0 0.490991 0.448384 
92000 0.0417808 0.38028 0.0650911 0 0 0.487131 0.445371 
93000 0.0409428 0.379572 0.0628405 0 0 0.483338 0.442411 
94000 0.0401338 0.378873 0.0607163 0 0 0.479709 0.439581 
95000 0.0393472 0.378181 0.0586736 0 0 0.476196 0.436843 
96000 0.038585 0.377497 0.0567192 0 0 0.472808 0.434204 
97000 0.0378465 0.3768 0.0548591 0 0 0.469515 0.431653 
98000 0.0371221 0.376094 0.0530544 0 0 0.466278 0.429153 
99000 0.0364245 0.375402 0.0513532 0 0 0.46317 0.426771 
100000 0.0357357 0.374713 0.0496865 0 0 0.460105 0.42443 
101000 0.0350858 0.374009 0.0481543 0 0 0.457263 0.422181 
102000 0.0344166 0.373279 0.0465779 0 0 0.454314 0.419897 
103000 0.0337965 0.37261 0.0451539 0 0 0.451578 0.417771 
104000 0.0331818 0.371947 0.0437467 0 0 0.448866 0.415661 
105000 0.0326115 0.371261 0.0424748 0 0 0.446348 0.41372 
106000 0.0320462 0.370572 0.0412179 0 0 0.443851 0.411797 
107000 0.0314776 0.36988 0.0399734 0 0 0.441327 0.409846 
108000 0.0309081 0.369187 0.038732 0 0 0.438796 0.407888 
109000 0.030391 0.368522 0.0376357 0 0 0.436515 0.406137 
110000 0.029887 0.367865 0.0365756 0 0 0.434296 0.404439 
111000 0.0293806 0.367172 0.0355265 0 0 0.432066 0.402709 
112000 0.0288727 0.366454 0.0344848 0 0 0.429827 0.400959 
113000 0.0283845 0.365767 0.033497 0 0 0.427667 0.399275 
114000 0.0279161 0.365109 0.0325629 0 0 0.425586 0.397659 
115000 0.0274585 0.364453 0.0316575 0 0 0.423547 0.39608 
116000 0.0270262 0.363798 0.0308191 0 0 0.421608 0.394587 
117000 0.0265939 0.363143 0.0299807 0 0 0.419669 0.393093 
118000 0.0261584 0.36243 0.0291562 0 0 0.417724 0.391587 
119000 0.0257228 0.361718 0.0283316 0 0 0.415779 0.39008 
120000 0.0253264 0.361074 0.0276003 0 0 0.414004 0.388694 
121000 0.0249397 0.360446 0.0268922 0 0 0.412272 0.387338 
122000 0.024559 0.359808 0.0262002 0 0 0.410549 0.385992 
123000 0.0241874 0.359155 0.0255323 0 0 0.408842 0.384661 
124000 0.0238158 0.358502 0.0248644 0 0 0.407134 0.383331 
125000 0.0234567 0.357824 0.0242391 0 0 0.405502 0.38205 
126000 0.0230977 0.357146 0.0236139 0 0 0.40387 0.380769 
127000 0.0227461 0.356484 0.0230113 0 0 0.402253 0.379504 
128000 0.0223996 0.355831 0.0224237 0 0 0.400646 0.378248 
129000 0.0220608 0.355183 0.0218517 0 0 0.399073 0.377017 
130000 0.0217525 0.354557 0.0213418 0 0 0.397636 0.375881 
131000 0.0214442 0.353932 0.0208319 0 0 0.396199 0.374745 
132000 0.0211343 0.353291 0.02033 0 0 0.394742 0.373597 
133000 0.0208234 0.35264 0.0198334 0 0 0.393271 0.37244 
134000 0.0205159 0.351992 0.0193432 0 0 0.391816 0.371296 
135000 0.0202391 0.351367 0.0189102 0 0 0.3905 0.370269 
136000 0.0199623 0.350742 0.0184772 0 0 0.389183 0.369242 
137000 0.0196859 0.350117 0.0180487 0 0 0.387855 0.3682 
138000 0.0194101 0.349491 0.0176268 0 0 0.386511 0.367134 
139000 0.0191343 0.348865 0.017205 0 0 0.385166 0.366068 
140000 0.018872 0.34824 0.0168153 0 0 0.383897 0.365051 
141000 0.0186131 0.347615 0.0164336 0 0 0.382648 0.364046 
142000 0.0183562 0.346992 0.0160555 0 0 0.381402 0.363048 
143000 0.0181173 0.34639 0.015709 0 0 0.380197 0.362101 
144000 0.0178784 0.345787 0.0153624 0 0 0.378992 0.361154 
145000 0.0176415 0.345178 0.0150224 0 0 0.377799 0.360207 
146000 0.017409 0.344554 0.0146974 0 0 0.376637 0.35926 
147000 0.0171766 0.34393 0.0143724 0 0 0.375475 0.358313 
148000 0.0169543 0.343328 0.0140641 0 0 0.374351 0.357406 
149000 0.0167422 0.34275 0.0137724 0 0 0.373267 0.356538 
150000 0.01653 0.342171 0.0134807 0 0 0.372182 0.35567 
151000 0.0163191 0.341581 0.0131939 0 0 0.371073 0.354742 
152000 0.0161182 0.340998 0.0129267 0 0 0.370029 0.353898 
153000 0.0159174 0.340416 0.0126596 0 0 0.368984 0.353055 
154000 0.0157213 0.339833 0.012402 0 0 0.367952 0.352223 
155000 0.0155285 0.33925 0.012151 0 0 0.366927 0.351399 
156000 0.0153356 0.338668 0.0118999 0 0 0.365903 0.350576 
157000 0.0151464 0.338085 0.0116584 0 0 0.36489 0.349752 
158000 0.0149596 0.337503 0.0114234 0 0 0.363886 0.348929 
159000 0.0147728 0.33692 0.0111884 0 0 0.362881 0.348105 
160000 0.0145931 0.336337 0.010966 0 0 0.361896 0.347297 
161000 0.0144181 0.335754 0.0107522 0 0 0.360924 0.3465 
162000 0.0142432 0.335171 0.0105384 0 0 0.359953 0.345703 
163000 0.0140747 0.334606 0.0103335 0 0 0.359015 0.344928 
164000 0.0139128 0.33406 0.0101377 0 0 0.358111 0.344175 
165000 0.0137508 0.333514 0.00994183 0 0 0.357207 0.343422 
166000 0.0135914 0.332967 0.00975159 0 0 0.356311 0.342681 
167000 0.013438 0.33242 0.00957445 0 0 0.355434 0.341968 
168000 0.0132846 0.331872 0.00939732 0 0 0.354558 0.341256 
169000 0.0131312 0.331324 0.00922018 0 0 0.353681 0.340544 
170000 0.0129851 0.330776 0.00905218 0 0 0.352823 0.339832 
171000 0.012839 0.330228 0.00888417 0 0 0.351965 0.33912 
172000 0.012693 0.32968 0.00871617 0 0 0.351106 0.338407 
173000 0.0125507 0.329133 0.00855711 0 0 0.350248 0.337695 
174000 0.0124101 0.328585 0.00840189 0 0 0.34939 0.336983 
175000 0.0122695 0.328037 0.00824667 0 0 0.348532 0.336271 
176000 0.0121334 0.327502 0.00809775 0 0 0.347707 0.335582 
177000 0.0120043 0.326985 0.00795828 0 0 0.346932 0.334928 
178000 0.0118752 0.326468 0.00781882 0 0 0.346157 0.334273 
179000 0.011746 0.325952 0.00767935 0 0 0.345382 0.333619 
180000 0.0116216 0.32542 0.00754764 0 0 0.344607 0.332965 
181000 0.0114976 0.324886 0.00741678 0 0 0.343833 0.33231 
182000 0.0113736 0.324352 0.00728592 0 0 0.343058 0.331656 
183000 0.0112517 0.323825 0.00715851 0 0 0.342283 0.331009 
184000 0.0111329 0.323309 0.00703626 0 0 0.341508 0.330372 
185000 0.0110141 0.322792 0.00691402 0 0 0.340733 0.329735 
186000 0.0108953 0.322276 0.00679177 0 0 0.339959 0.329098 
187000 0.0107852 0.32177 0.00668133 0 0 0.339236 0.328477 
188000 0.0106761 0.321265 0.00657221 0 0 0.33852 0.327858 
189000 0.010567 0.32076 0.00646308 0 0 0.337803 0.327239 
190000 0.0104588 0.320258 0.00635543 0 0 0.33709 0.326623 
191000 0.0103546 0.31977 0.00625363 0 0 0.336389 0.326021 
192000 0.0102503 0.319281 0.00615184 0 0 0.335689 0.325418 
193000 0.0101461 0.318792 0.00605004 0 0 0.334988 0.324816 
194000 0.0100448 0.318302 0.00595244 0 0 0.334297 0.324229 
195000 0.0099465 0.317811 0.00585903 0 0 0.333615 0.323658 
196000 0.00984818 0.317319 0.00576563 0 0 0.332934 0.323087 
197000 0.00974986 0.316828 0.00567222 0 0 0.332252 0.322516 
198000 0.00965318 0.316336 0.00558233 0 0 0.331578 0.321939 
199000 0.00955721 0.315845 0.00549394 0 0 0.330909 0.321358 
200000 0.00946123 0.315354 0.00540556 0 0 0.330239 0.320778 
