#F CdTe.txt
#S 1 File written by xplot on Tue Nov 22 14:55:58 2022
#N 8
#L    PhotonEnergy [eV]  XCOM:Rayleigh(coherent)[cm^-1]  XCOM:Compton(incoherent)[cm^-1]  XCOM:PhotoElectric[cm^-1]  XCOM:PairProduction(NuclearField)[cm^-1]  XCOM:PairProduction(ElectronField)[cm^-1]  XCOM:TotalCrossSection[cm^-1]  XCOM:TotalCrossSection-Coh[cm^-1]
1000 49.2674 0.031253 49096.3 0 0 49142.9 49096.3 
2000 43.7915 0.0839117 10273.5 0 0 10317.1 10273.5 
3000 38.1601 0.133335 3772.45 0 0 3809.78 3772.45 
4000 33.182 0.177717 4449.31 0 0 4482.76 4449.47 
5000 28.946 0.217293 5174.09 0 0 5203.64 5174.09 
6000 25.4037 0.253291 3251.46 0 0 3277.28 3251.62 
7000 22.4524 0.286585 2167.89 0 0 2190.56 2168.2 
8000 20.0041 0.317492 1524.69 0 0 1545.07 1525 
9000 17.9694 0.346089 1113.16 0 0 1131.43 1113.56 
10000 16.2659 0.372422 839.428 0 0 856.073 839.739 
11000 14.8321 0.396513 647.839 0 0 662.958 648.15 
12000 13.5907 0.418612 510.46 0 0 524.487 510.862 
13000 12.5061 0.438749 410.007 0 0 423.056 410.473 
14000 11.5551 0.457067 335.267 0 0 347.256 335.738 
15000 10.7013 0.474006 277.512 0 0 288.713 278.057 
16000 9.93879 0.489482 232.233 0 0 242.662 232.719 
17000 9.24715 0.503568 196.221 0 0 205.958 196.719 
18000 8.62047 0.516671 167.453 0 0 176.578 167.966 
19000 8.05136 0.528731 144.085 0 0 152.663 144.614 
20000 7.52934 0.540121 124.856 0 0 132.915 125.401 
21000 7.05422 0.550688 108.867 0 0 116.466 109.421 
22000 6.62173 0.560545 95.5524 0 0 102.719 96.1013 
23000 6.22356 0.569613 84.2325 0 0 91.0272 84.7925 
24000 5.86337 0.578284 74.7817 0 0 81.2201 75.3573 
25000 5.53247 0.586139 66.6926 0 0 72.8306 67.2896 
26000 5.23015 0.593763 59.7207 0 0 65.5482 60.3169 
27000 4.95259 0.600735 171.995 0 0 177.555 172.602 
28000 4.69832 0.607247 156.366 0 0 161.679 156.988 
29000 4.46543 0.613178 142.583 0 0 147.672 143.206 
30000 4.25003 0.618993 130.426 0 0 135.295 131.048 
31000 4.05148 0.62423 119.616 0 0 124.291 120.231 
32000 3.8682 0.629295 208.944 0 0 213.433 209.567 
33000 3.69734 0.634 192.888 0 0 197.219 193.526 
34000 3.53785 0.638523 178.454 0 0 182.623 179.095 
35000 3.38977 0.6426 165.459 0 0 169.501 166.112 
36000 3.2496 0.646782 153.596 0 0 157.489 154.252 
37000 3.11972 0.650419 142.983 0 0 146.766 143.643 
38000 2.99696 0.654005 133.203 0 0 136.849 133.857 
39000 2.88176 0.657181 124.406 0 0 127.946 125.064 
40000 2.77341 0.660373 116.238 0 0 119.676 116.907 
41000 2.67214 0.663315 108.857 0 0 112.195 109.526 
42000 2.57567 0.66604 102.007 0 0 105.25 102.678 
43000 2.4848 0.668498 95.7537 0 0 98.907 96.4332 
44000 2.39884 0.670897 89.9939 0 0 93.0654 90.6628 
45000 2.31707 0.673144 84.6598 0 0 87.6514 85.3393 
46000 2.23956 0.675262 79.7478 0 0 82.6687 80.4197 
47000 2.16577 0.677196 75.1892 0 0 78.0265 75.8581 
48000 2.09541 0.679057 70.9763 0 0 73.745 71.6456 
49000 2.02891 0.680698 67.0911 0 0 69.8233 67.79 
50000 1.9651 0.682307 63.486 0 0 66.1306 64.1705 
51000 1.90435 0.683748 60.137 0 0 62.7262 60.8081 
52000 1.84631 0.685125 57.0227 0 0 59.5519 57.7072 
53000 1.79049 0.686352 54.1093 0 0 56.5925 54.7958 
54000 1.73756 0.687548 51.4026 0 0 53.8397 52.1013 
55000 1.68639 0.68872 48.8609 0 0 51.2393 49.546 
56000 1.63739 0.689593 46.4765 0 0 48.8113 47.1761 
57000 1.59079 0.690579 44.2787 0 0 46.571 44.9787 
58000 1.54619 0.691312 42.2174 0 0 44.4559 42.9053 
59000 1.50328 0.6921 40.2741 0 0 42.4577 40.9586 
60000 1.46169 0.69273 38.409 0 0 40.5713 39.109 
61000 1.42231 0.693279 36.709 0 0 38.82 37.3964 
62000 1.38412 0.693768 35.0761 0 0 37.1437 35.7684 
63000 1.34757 0.694161 33.5468 0 0 35.5752 34.239 
64000 1.31241 0.694667 32.1075 0 0 34.1081 32.7997 
65000 1.27854 0.695063 30.7441 0 0 32.7173 31.4374 
66000 1.24596 0.69536 29.4604 0 0 31.3995 30.1543 
67000 1.21459 0.695566 28.2467 0 0 30.1511 28.9405 
68000 1.18431 0.695685 27.0877 0 0 28.9671 27.7815 
69000 1.15552 0.695802 26.0107 0 0 27.8599 26.7069 
70000 1.12748 0.695918 24.9809 0 0 26.803 25.6771 
71000 1.10029 0.695962 23.9974 0 0 25.7939 24.6928 
72000 1.07414 0.695849 23.064 0 0 24.8346 23.7594 
73000 1.04912 0.695842 22.1932 0 0 23.9384 22.8896 
74000 1.02485 0.695729 21.3596 0 0 23.0802 22.0559 
75000 1.00128 0.695522 20.56 0 0 22.2569 21.2553 
76000 0.978801 0.695415 19.8088 0 0 21.4823 20.5031 
77000 0.957012 0.695246 19.0926 0 0 20.7443 19.7877 
78000 0.93578 0.695039 18.4034 0 0 20.0343 19.1 
79000 0.915515 0.694834 17.7555 0 0 19.366 18.4502 
80000 0.895587 0.694441 17.1277 0 0 18.7176 17.8215 
81000 0.876325 0.694111 16.5336 0 0 18.1039 17.2274 
82000 0.858225 0.693719 15.9769 0 0 17.5296 16.6707 
83000 0.840361 0.69333 15.4371 0 0 16.9715 16.1301 
84000 0.822776 0.692944 14.9173 0 0 16.4323 15.6083 
85000 0.806194 0.692485 14.429 0 0 15.9275 15.1213 
86000 0.789902 0.692034 13.9527 0 0 15.435 14.6463 
87000 0.774067 0.691661 13.5018 0 0 14.9673 14.1945 
88000 0.758764 0.691197 13.0691 0 0 14.519 13.7609 
89000 0.743936 0.690651 12.6524 0 0 14.0878 13.3433 
90000 0.729676 0.690115 12.2611 0 0 13.6814 12.951 
91000 0.715596 0.689576 11.8771 0 0 13.2825 12.5663 
92000 0.702224 0.688964 11.5179 0 0 12.9093 12.2071 
93000 0.689017 0.688356 11.1659 0 0 12.5434 11.8548 
94000 0.67621 0.687754 10.8316 0 0 12.1953 11.5196 
95000 0.663739 0.687159 10.5092 0 0 11.8597 11.196 
96000 0.65163 0.68657 10.1998 0 0 11.5376 10.8849 
97000 0.639904 0.685935 9.90281 0 0 11.2287 10.5873 
98000 0.628402 0.685273 9.6132 0 0 10.9275 10.2977 
99000 0.617326 0.684574 9.33945 0 0 10.6422 10.0239 
100000 0.606392 0.683863 9.07099 0 0 10.3622 9.75547 
101000 0.5961 0.683208 8.82241 0 0 10.1013 9.50468 
102000 0.585374 0.682389 8.56614 0 0 9.83358 9.2476 
103000 0.575481 0.681747 8.3326 0 0 9.5898 9.01397 
104000 0.56568 0.681125 8.10158 0 0 9.34867 8.78296 
105000 0.556567 0.680396 7.8918 0 0 9.12855 8.57251 
106000 0.547529 0.679655 7.68439 0 0 8.91076 8.36435 
107000 0.538379 0.678885 7.478 0 0 8.69421 8.15658 
108000 0.5292 0.678107 7.27188 0 0 8.47797 7.9489 
109000 0.520916 0.677329 7.08867 0 0 8.28595 7.76481 
110000 0.512855 0.676552 6.91118 0 0 8.09998 7.58662 
111000 0.504741 0.675752 6.7344 0 0 7.91447 7.40911 
112000 0.496593 0.674937 6.55809 0 0 7.72928 7.23206 
113000 0.488735 0.67414 6.39039 0 0 7.55289 7.06363 
114000 0.481169 0.673362 6.23129 0 0 7.3853 6.90383 
115000 0.473803 0.672575 6.0767 0 0 7.22254 6.74854 
116000 0.466904 0.671763 5.93263 0 0 7.07103 6.6038 
117000 0.460005 0.670951 5.78857 0 0 6.91952 6.45905 
118000 0.452863 0.670103 5.64573 0 0 6.7682 6.31551 
119000 0.445722 0.669254 5.50289 0 0 6.61688 6.17196 
120000 0.439263 0.668462 5.3758 0 0 6.48239 6.04369 
121000 0.432976 0.667684 5.25265 0 0 6.3521 5.91924 
122000 0.426792 0.666906 5.13182 0 0 6.22441 5.79738 
123000 0.420764 0.666129 5.0145 0 0 6.10061 5.67941 
124000 0.414736 0.665351 4.89718 0 0 5.9768 5.56144 
125000 0.408902 0.664508 4.78634 0 0 5.85948 5.4506 
126000 0.403069 0.663666 4.6755 0 0 5.74216 5.33976 
127000 0.397352 0.662784 4.56855 0 0 5.62834 5.23203 
128000 0.391712 0.661877 4.46419 0 0 5.51685 5.12638 
129000 0.386184 0.660995 4.36252 0 0 5.40827 5.02343 
130000 0.381098 0.660217 4.27157 0 0 5.31134 4.93129 
131000 0.376012 0.659439 4.18063 0 0 5.21442 4.83914 
132000 0.370916 0.658606 4.09011 0 0 5.11815 4.74778 
133000 0.365814 0.657734 3.99988 0 0 5.02232 4.65693 
134000 0.360761 0.65687 3.91079 0 0 4.92766 4.56721 
135000 0.356151 0.656063 3.83191 0 0 4.84354 4.4877 
136000 0.351542 0.655256 3.75304 0 0 4.75942 4.40819 
137000 0.346953 0.654413 3.67472 0 0 4.67592 4.32937 
138000 0.342393 0.653516 3.59723 0 0 4.59335 4.25159 
139000 0.337834 0.652618 3.51975 0 0 4.51078 4.1738 
140000 0.333498 0.651794 3.44779 0 0 4.43389 4.10063 
141000 0.329217 0.650987 3.37721 0 0 4.35841 4.02861 
142000 0.324968 0.650172 3.30731 0 0 4.28353 3.95729 
143000 0.321012 0.649283 3.24359 0 0 4.21409 3.89229 
144000 0.317057 0.648394 3.17986 0 0 4.14464 3.82728 
145000 0.313134 0.647522 3.11692 0 0 4.07635 3.76328 
146000 0.30929 0.646689 3.0558 0 0 4.0108 3.70161 
147000 0.305445 0.645855 2.99469 0 0 3.94524 3.63994 
148000 0.301727 0.645003 2.93669 0 0 3.8829 3.58117 
149000 0.298137 0.644132 2.88181 0 0 3.82378 3.52529 
150000 0.294546 0.643261 2.82692 0 0 3.76467 3.46941 
151000 0.291056 0.642452 2.77276 0 0 3.70689 3.41589 
152000 0.287675 0.641622 2.72215 0 0 3.65208 3.36404 
153000 0.284294 0.640792 2.67154 0 0 3.59727 3.31218 
154000 0.280984 0.639932 2.62254 0 0 3.54408 3.26232 
155000 0.277723 0.63905 2.57463 0 0 3.49196 3.21378 
156000 0.274461 0.638169 2.52672 0 0 3.43985 3.16525 
157000 0.271268 0.637318 2.48033 0 0 3.38935 3.11796 
158000 0.26812 0.636488 2.43495 0 0 3.33994 3.07149 
159000 0.264973 0.635659 2.38958 0 0 3.29052 3.02503 
160000 0.261949 0.634815 2.34656 0 0 3.24359 2.98097 
161000 0.259008 0.633962 2.30511 0 0 3.19833 2.93852 
162000 0.256068 0.633109 2.26366 0 0 3.15306 2.89607 
163000 0.253219 0.632245 2.2239 0 0 3.10948 2.85549 
164000 0.250463 0.63137 2.18584 0 0 3.06757 2.81679 
165000 0.247706 0.630495 2.14777 0 0 3.02567 2.7781 
166000 0.244999 0.629642 2.11068 0 0 2.98498 2.74033 
167000 0.242406 0.62884 2.07584 0 0 2.94712 2.70474 
168000 0.239814 0.628039 2.041 0 0 2.90927 2.66915 
169000 0.237221 0.627237 2.00616 0 0 2.87142 2.63356 
170000 0.234718 0.626389 1.97326 0 0 2.83483 2.59976 
171000 0.232214 0.62554 1.94036 0 0 2.79825 2.56596 
172000 0.229711 0.624692 1.90745 0 0 2.76167 2.53216 
173000 0.227271 0.623876 1.87573 0 0 2.72667 2.49961 
174000 0.224857 0.623075 1.84453 0 0 2.69236 2.4676 
175000 0.222444 0.622274 1.81332 0 0 2.65804 2.43559 
176000 0.220114 0.621473 1.78348 0 0 2.62514 2.40497 
177000 0.217909 0.620673 1.7557 0 0 2.59439 2.37644 
178000 0.215704 0.619873 1.72793 0 0 2.56363 2.3479 
179000 0.2135 0.619072 1.70015 0 0 2.53287 2.31937 
180000 0.211355 0.618273 1.67381 0 0 2.50351 2.29215 
181000 0.209217 0.617472 1.64763 0 0 2.47431 2.26509 
182000 0.207079 0.616672 1.62145 0 0 2.44511 2.23802 
183000 0.204974 0.615855 1.5958 0 0 2.41651 2.21152 
184000 0.202916 0.61501 1.57096 0 0 2.38882 2.18587 
185000 0.200858 0.614166 1.54611 0 0 2.36113 2.16023 
186000 0.1988 0.613321 1.52126 0 0 2.33344 2.13458 
187000 0.196899 0.612556 1.49884 0 0 2.30831 2.11136 
188000 0.195015 0.611799 1.47668 0 0 2.28346 2.0884 
189000 0.193132 0.611042 1.45452 0 0 2.25861 2.06544 
190000 0.19126 0.610277 1.4326 0 0 2.23402 2.04273 
191000 0.189435 0.609478 1.41162 0 0 2.21043 2.02099 
192000 0.18761 0.608679 1.39064 0 0 2.18684 1.99926 
193000 0.185786 0.60788 1.36966 0 0 2.16326 1.97752 
194000 0.184018 0.607092 1.34951 0 0 2.14057 1.9566 
195000 0.182306 0.606314 1.33019 0 0 2.11879 1.9365 
196000 0.180595 0.605536 1.31086 0 0 2.09701 1.9164 
197000 0.178884 0.604758 1.29154 0 0 2.07524 1.8963 
198000 0.177209 0.60396 1.27292 0 0 2.05414 1.87688 
199000 0.17555 0.603154 1.2546 0 0 2.03334 1.85775 
200000 0.17389 0.602347 1.23627 0 0 2.01254 1.83862 
