#F GaAs
#S 1 File written by xplot on Tue Feb 21 19:40:27 2023
#N 8
#L    PhotonEnergy [eV]  XCOM:Rayleigh(coherent)[cm^-1]  XCOM:Compton(incoherent)[cm^-1]  XCOM:PhotoElectric[cm^-1]  XCOM:PairProduction(NuclearField)[cm^-1]  XCOM:PairProduction(ElectronField)[cm^-1]  XCOM:TotalCrossSection[cm^-1]  XCOM:TotalCrossSection-Coh[cm^-1]
1000 28.5748 0.0326193 10168.8 0 0 10197.5 10168.8 
2000 25.2502 0.0874677 14503.4 0 0 14527.7 14503.4 
3000 21.9721 0.137304 5140.86 0 0 5163.01 5140.86 
4000 19.1304 0.181757 2395.67 0 0 2414.94 2395.67 
5000 16.6807 0.222158 1310.58 0 0 1327.41 1310.8 
6000 14.561 0.259236 796.047 0 0 810.887 796.49 
7000 12.7369 0.293314 519.629 0 0 532.701 519.982 
8000 11.1765 0.324709 358.797 0 0 370.292 359.107 
9000 9.85087 0.353638 258.03 0 0 268.24 258.384 
10000 8.74455 0.380193 191.968 0 0 201.094 192.345 
11000 7.82493 0.404395 567.767 0 0 575.972 568.188 
12000 7.03536 0.426812 863.823 0 0 871.262 864.266 
13000 6.35836 0.447368 703.232 0 0 710.098 703.675 
14000 5.78302 0.466054 581.083 0 0 587.285 581.526 
15000 5.28483 0.483298 484.694 0 0 490.475 485.159 
16000 4.86118 0.498674 408.603 0 0 413.951 409.074 
17000 4.4899 0.513039 347.003 0 0 352.001 347.526 
18000 4.16558 0.525939 297.118 0 0 301.812 297.627 
19000 3.87823 0.53769 256.193 0 0 260.627 256.744 
20000 3.62008 0.548639 222.335 0 0 226.521 222.889 
21000 3.38933 0.558692 194.38 0 0 198.339 194.949 
22000 3.18102 0.56794 170.964 0 0 174.711 171.55 
23000 2.99038 0.576409 150.993 0 0 154.579 151.569 
24000 2.81819 0.584167 134.236 0 0 137.61 134.794 
25000 2.66055 0.591387 119.843 0 0 123.093 120.434 
26000 2.51488 0.598275 107.364 0 0 110.486 107.962 
27000 2.38074 0.6044 96.5757 0 0 99.5689 97.1801 
28000 2.25672 0.610251 87.1576 0 0 90.0444 87.7741 
29000 2.14163 0.615478 78.9307 0 0 81.6784 79.5287 
30000 2.03464 0.620402 71.6752 0 0 74.3331 72.2954 
31000 1.93536 0.624877 65.3139 0 0 67.864 65.9215 
32000 1.84306 0.628991 59.661 0 0 62.1388 60.3033 
33000 1.7567 0.633076 54.6445 0 0 57.0373 55.2722 
34000 1.67615 0.636786 50.1619 0 0 52.4758 50.782 
35000 1.60092 0.639943 46.1638 0 0 48.4098 46.8009 
36000 1.53008 0.643082 42.5383 0 0 44.723 43.1851 
37000 1.46438 0.64589 39.3363 0 0 41.4412 39.9831 
38000 1.40249 0.648435 36.395 0 0 38.4438 37.0439 
39000 1.34464 0.651022 33.7786 0 0 35.7758 34.4288 
40000 1.28998 0.653183 31.3701 0 0 33.3126 32.0235 
41000 1.23927 0.655182 29.2139 0 0 31.1085 29.8712 
42000 1.19085 0.657095 27.2317 0 0 29.0792 27.8873 
43000 1.14556 0.658782 25.4322 0 0 27.2347 26.0885 
44000 1.10274 0.660395 23.7838 0 0 25.5465 24.4439 
45000 1.06224 0.661683 22.2702 0 0 23.9938 22.9309 
46000 1.02411 0.662939 20.8822 0 0 22.5692 21.544 
47000 0.987734 0.663968 19.6021 0 0 21.2526 20.2664 
48000 0.953646 0.665151 18.4263 0 0 20.045 19.0907 
49000 0.921257 0.665873 17.3478 0 0 18.934 18.0126 
50000 0.890624 0.666695 16.3462 0 0 17.9033 17.0129 
51000 0.861467 0.667421 15.4238 0 0 16.9525 16.0905 
52000 0.833782 0.667863 14.5698 0 0 16.0704 15.2368 
53000 0.80762 0.668328 13.7713 0 0 15.2476 14.4402 
54000 0.782567 0.668928 13.0344 0 0 14.4853 13.7033 
55000 0.758376 0.669139 12.3424 0 0 13.7702 13.0113 
56000 0.735813 0.669346 11.6987 0 0 13.1058 12.3676 
57000 0.714237 0.669548 11.1051 0 0 12.4901 11.776 
58000 0.693543 0.669746 10.5516 0 0 11.9148 11.2227 
59000 0.673683 0.669795 10.0328 0 0 11.376 10.7025 
60000 0.654512 0.669795 9.5375 0 0 10.862 10.2064 
61000 0.636605 0.669795 9.0865 0 0 10.391 9.75541 
62000 0.619178 0.669746 8.65526 0 0 9.94384 9.32417 
63000 0.602397 0.669563 8.2523 0 0 9.5228 8.9212 
64000 0.58655 0.669383 7.87414 0 0 9.13024 8.54305 
65000 0.571208 0.669205 7.52012 0 0 8.76053 8.18903 
66000 0.556477 0.66893 7.18583 0 0 8.41152 7.85474 
67000 0.542366 0.668587 6.87004 0 0 8.08148 7.53844 
68000 0.52884 0.668248 6.57246 0 0 7.76868 7.23918 
69000 0.515844 0.667915 6.29415 0 0 7.47703 6.96085 
70000 0.503306 0.667585 6.02959 0 0 7.19927 6.6952 
71000 0.491154 0.66716 5.77771 0 0 6.93486 6.44269 
72000 0.479341 0.666518 5.53857 0 0 6.68447 6.20515 
73000 0.468214 0.666181 5.3173 0 0 6.45219 5.98399 
74000 0.45742 0.66571 5.10512 0 0 6.22857 5.77205 
75000 0.446919 0.665096 4.90135 0 0 6.01302 5.56855 
76000 0.436831 0.664489 4.71217 0 0 5.81277 5.3774 
77000 0.427083 0.663892 4.53161 0 0 5.62315 5.19582 
78000 0.417599 0.663302 4.35784 0 0 5.44121 5.02158 
79000 0.408521 0.662719 4.19507 0 0 5.26781 4.85823 
80000 0.39964 0.662043 4.03871 0 0 5.09877 4.70141 
81000 0.391082 0.661558 3.89068 0 0 4.94259 4.55265 
82000 0.382932 0.660723 3.75193 0 0 4.79576 4.41237 
83000 0.374944 0.659955 3.61759 0 0 4.65269 4.277 
84000 0.367143 0.659267 3.4884 0 0 4.51401 4.14741 
85000 0.359709 0.658593 3.36793 0 0 4.38538 4.0263 
86000 0.352399 0.657897 3.25058 0 0 4.26024 3.90828 
87000 0.34533 0.657101 3.13957 0 0 4.14193 3.79661 
88000 0.338465 0.656315 3.03316 0 0 4.02811 3.68948 
89000 0.331782 0.655538 2.93083 0 0 3.91827 3.58637 
90000 0.3254 0.654776 2.83509 0 0 3.81516 3.48977 
91000 0.319104 0.654008 2.74127 0 0 3.71404 3.39507 
92000 0.313082 0.653137 2.65367 0 0 3.61972 3.30672 
93000 0.307141 0.652271 2.56794 0 0 3.52731 3.22018 
94000 0.301402 0.651414 2.48681 0 0 3.43957 3.13807 
95000 0.295809 0.650566 2.40859 0 0 3.35486 3.05899 
96000 0.290373 0.649728 2.33352 0 0 3.27345 2.9832 
97000 0.285096 0.648824 2.26188 0 0 3.19575 2.91078 
98000 0.279912 0.647882 2.19225 0 0 3.12023 2.84032 
99000 0.274924 0.647077 2.12643 0 0 3.04857 2.77363 
100000 0.27 0.646317 2.06188 0 0 2.9782 2.7082 
101000 0.265329 0.645571 2.00219 0 0 2.91306 2.64776 
102000 0.260514 0.644638 1.94088 0 0 2.84602 2.58551 
103000 0.256046 0.643748 1.88531 0 0 2.785 2.52895 
104000 0.251616 0.642862 1.83038 0 0 2.72464 2.47303 
105000 0.2475 0.642014 1.78036 0 0 2.66972 2.42225 
106000 0.243418 0.64117 1.7309 0 0 2.6154 2.37204 
107000 0.239288 0.640204 1.68184 0 0 2.5613 2.32205 
108000 0.235146 0.639207 1.63289 0 0 2.50726 2.2721 
109000 0.231394 0.638364 1.5896 0 0 2.45924 2.2278 
110000 0.227739 0.637558 1.54771 0 0 2.41273 2.18491 
111000 0.224056 0.636603 1.50603 0 0 2.36653 2.14238 
112000 0.220354 0.635548 1.46447 0 0 2.32054 2.10008 
113000 0.216791 0.634618 1.42502 0 0 2.27666 2.05981 
114000 0.213368 0.633813 1.38766 0 0 2.23488 2.02155 
115000 0.210022 0.63296 1.35144 0 0 2.1943 1.9844 
116000 0.206853 0.631997 1.31783 0 0 2.15655 1.94982 
117000 0.203685 0.631034 1.28422 0 0 2.1188 1.91525 
118000 0.200494 0.630128 1.25089 0 0 2.08145 1.88102 
119000 0.197302 0.629222 1.21757 0 0 2.0441 1.84679 
120000 0.194382 0.628302 1.18794 0 0 2.01072 1.81632 
121000 0.191531 0.627379 1.15924 0 0 1.97832 1.78679 
122000 0.18872 0.626457 1.13117 0 0 1.94659 1.75788 
123000 0.185969 0.625534 1.10403 0 0 1.91586 1.72992 
124000 0.183219 0.624611 1.0769 0 0 1.88513 1.70195 
125000 0.18057 0.623688 1.05143 0 0 1.85597 1.67547 
126000 0.177922 0.622765 1.02596 0 0 1.8268 1.64898 
127000 0.175317 0.621842 1.00132 0 0 1.79864 1.62332 
128000 0.172743 0.620919 0.977228 0 0 1.77113 1.59822 
129000 0.170224 0.620011 0.953767 0 0 1.74428 1.57378 
130000 0.167933 0.619159 0.93281 0 0 1.72 1.55197 
131000 0.165641 0.618307 0.911854 0 0 1.69572 1.53016 
132000 0.163337 0.617381 0.891138 0 0 1.67176 1.50852 
133000 0.161025 0.616407 0.870583 0 0 1.64802 1.48699 
134000 0.158737 0.615448 0.850288 0 0 1.62455 1.46574 
135000 0.15667 0.614627 0.832322 0 0 1.60364 1.44695 
136000 0.154602 0.613807 0.814357 0 0 1.58272 1.42816 
137000 0.152534 0.61294 0.796524 0 0 1.56192 1.40946 
138000 0.150464 0.612003 0.778889 0 0 1.5413 1.39089 
139000 0.148394 0.611066 0.761255 0 0 1.52069 1.37232 
140000 0.146437 0.610156 0.744996 0 0 1.5016 1.35515 
141000 0.14451 0.609254 0.729082 0 0 1.4829 1.33834 
142000 0.142594 0.608355 0.713303 0 0 1.46434 1.32166 
143000 0.140791 0.607485 0.698748 0 0 1.44709 1.30623 
144000 0.138987 0.606615 0.684193 0 0 1.42985 1.29081 
145000 0.137202 0.605721 0.669898 0 0 1.41287 1.27562 
146000 0.135462 0.604771 0.656213 0 0 1.39649 1.26098 
147000 0.133722 0.603822 0.642528 0 0 1.38012 1.24635 
148000 0.13205 0.602904 0.629528 0 0 1.36453 1.23243 
149000 0.130446 0.602019 0.617213 0 0 1.34974 1.21923 
150000 0.128843 0.601133 0.604898 0 0 1.33494 1.20603 
151000 0.127248 0.600158 0.592937 0 0 1.32028 1.19314 
152000 0.125734 0.599272 0.581493 0 0 1.30654 1.18088 
153000 0.124221 0.598386 0.57005 0 0 1.29281 1.16863 
154000 0.122738 0.5975 0.559049 0 0 1.27948 1.15677 
155000 0.121276 0.596614 0.548343 0 0 1.26641 1.14518 
156000 0.119815 0.595728 0.537638 0 0 1.25334 1.13359 
157000 0.118379 0.594842 0.527335 0 0 1.24067 1.12239 
158000 0.116962 0.593956 0.517302 0 0 1.22827 1.11147 
159000 0.115544 0.59307 0.507268 0 0 1.21586 1.10054 
160000 0.114184 0.592201 0.497733 0 0 1.20404 1.09008 
161000 0.112862 0.591344 0.48853 0 0 1.19261 1.07994 
162000 0.11154 0.590487 0.479328 0 0 1.18118 1.06979 
163000 0.11026 0.589608 0.470518 0 0 1.17024 1.06008 
164000 0.109021 0.588708 0.462101 0 0 1.15979 1.05081 
165000 0.107782 0.587808 0.453685 0 0 1.14934 1.04153 
166000 0.106568 0.586937 0.445485 0 0 1.1391 1.03248 
167000 0.105414 0.586131 0.437793 0 0 1.12937 1.02396 
168000 0.10426 0.585326 0.430102 0 0 1.11963 1.01543 
169000 0.103105 0.584521 0.42241 0 0 1.1099 1.00691 
170000 0.101984 0.583715 0.415114 0 0 1.10071 0.998787 
171000 0.100863 0.58291 0.407818 0 0 1.09151 0.990665 
172000 0.0997424 0.582104 0.400522 0 0 1.08232 0.982544 
173000 0.0986544 0.581252 0.39356 0 0 1.0734 0.974751 
174000 0.0975805 0.580379 0.386741 0 0 1.06461 0.9671 
175000 0.0965066 0.579507 0.379921 0 0 1.05582 0.959448 
176000 0.0954674 0.578654 0.3734 0 0 1.0474 0.952098 
177000 0.0944801 0.577831 0.367324 0 0 1.03956 0.9452 
178000 0.0934929 0.577009 0.361249 0 0 1.03171 0.938302 
179000 0.0925057 0.576186 0.355174 0 0 1.02386 0.931404 
180000 0.0915583 0.575363 0.349418 0 0 1.01636 0.924791 
181000 0.0906154 0.574541 0.343697 0 0 1.00889 0.91821 
182000 0.0896725 0.573718 0.337976 0 0 1.00142 0.911628 
183000 0.0887371 0.57287 0.332384 0 0 0.99408 0.905198 
184000 0.0878132 0.571984 0.326986 0 0 0.986929 0.898997 
185000 0.0868893 0.571098 0.321588 0 0 0.979778 0.892795 
186000 0.0859653 0.570212 0.31619 0 0 0.972627 0.886593 
187000 0.085124 0.569477 0.311313 0 0 0.966093 0.880908 
188000 0.0842919 0.568759 0.306494 0 0 0.959628 0.875281 
189000 0.0834598 0.56804 0.301675 0 0 0.953163 0.869654 
190000 0.0826337 0.567298 0.296913 0 0 0.94677 0.864087 
191000 0.0818316 0.56646 0.292382 0 0 0.940664 0.858759 
192000 0.0810294 0.565622 0.28785 0 0 0.934558 0.853431 
193000 0.0802272 0.564784 0.283319 0 0 0.928452 0.848103 
194000 0.0794444 0.563986 0.278969 0 0 0.922513 0.842962 
195000 0.0786808 0.563228 0.274801 0 0 0.916743 0.838008 
196000 0.0779172 0.56247 0.270634 0 0 0.910972 0.833053 
197000 0.0771537 0.561713 0.266466 0 0 0.905202 0.828099 
198000 0.0764135 0.560911 0.262454 0 0 0.899681 0.823339 
199000 0.0756834 0.560091 0.258508 0 0 0.894266 0.818663 
200000 0.0749533 0.55927 0.254562 0 0 0.888852 0.813987 
