#F hydroxyapatite.txt
#S 1 File written by xplot on Thu Mar 02 14:20:33 2023
#N 8
#L    PhotonEnergy [eV]  XCOM:Rayleigh(coherent)[cm^-1]  XCOM:Compton(incoherent)[cm^-1]  XCOM:PhotoElectric[cm^-1]  XCOM:PairProduction(NuclearField)[cm^-1]  XCOM:PairProduction(ElectronField)[cm^-1]  XCOM:TotalCrossSection[cm^-1]  XCOM:TotalCrossSection-Coh[cm^-1]
1000 7.88262 0.0361016 12998.4 0 0 13003.7 12998.4 
2000 6.52847 0.0931323 2047.71 0 0 2054.11 2047.71 
3000 5.33383 0.148748 1245.18 0 0 1250.7 1245.23 
4000 4.373 0.197299 566.239 0 0 570.846 566.412 
5000 3.6309 0.237642 966.868 0 0 970.799 966.967 
6000 3.06794 0.270566 592.662 0 0 595.949 593.025 
7000 2.63706 0.297442 389.734 0 0 392.668 390.037 
8000 2.30081 0.31966 269.759 0 0 272.377 270.152 
9000 2.03231 0.338226 194.21 0 0 196.589 194.552 
10000 1.81168 0.354066 144.142 0 0 146.303 144.494 
11000 1.62758 0.367776 109.979 0 0 111.968 110.337 
12000 1.4695 0.379945 85.6147 0 0 87.4584 85.9902 
13000 1.33346 0.390712 67.9091 0 0 69.6327 68.2989 
14000 1.21567 0.400237 54.8137 0 0 56.423 55.2167 
15000 1.11145 0.408848 44.7884 0 0 46.3128 45.1961 
16000 1.01998 0.416561 37.1111 0 0 38.5436 37.524 
17000 0.938231 0.423556 31.0353 0 0 32.4011 31.4589 
18000 0.865791 0.42988 26.2224 0 0 27.5097 26.6432 
19000 0.801239 0.435552 22.3292 0 0 23.5713 22.7637 
20000 0.743207 0.440697 19.1507 0 0 20.3339 19.591 
21000 0.691571 0.445285 16.5588 0 0 17.6956 17.0037 
22000 0.645138 0.449418 14.4108 0 0 15.5037 14.8598 
23000 0.603021 0.453097 12.5962 0 0 13.653 13.0498 
24000 0.565215 0.456432 11.0902 0 0 12.1121 11.5471 
25000 0.530827 0.459409 9.81036 0 0 10.8002 10.2708 
26000 0.499597 0.462061 8.71275 0 0 9.6755 9.1745 
27000 0.471015 0.46446 7.77132 0 0 8.70723 8.23654 
28000 0.444954 0.46658 6.95899 0 0 7.86965 7.42603 
29000 0.420827 0.468515 6.25158 0 0 7.14157 6.72125 
30000 0.398853 0.470171 5.63793 0 0 6.50745 6.10856 
31000 0.378614 0.471641 5.10226 0 0 5.95241 5.57432 
32000 0.35997 0.472941 4.63078 0 0 5.46442 5.10456 
33000 0.342663 0.474115 4.21592 0 0 5.03305 4.69009 
34000 0.326642 0.475112 3.84768 0 0 4.6489 4.32273 
35000 0.311703 0.475977 3.52011 0 0 4.30785 3.99705 
36000 0.297739 0.476698 3.22696 0 0 4.00169 3.70404 
37000 0.284884 0.477325 2.96732 0 0 3.72967 3.44464 
38000 0.272708 0.477858 2.73256 0 0 3.48296 3.21013 
39000 0.261451 0.478239 2.52315 0 0 3.2638 3.00204 
40000 0.250771 0.478576 2.33261 0 0 3.06163 2.81205 
41000 0.24085 0.478814 2.16246 0 0 2.88272 2.6419 
42000 0.231438 0.478992 2.00665 0 0 2.71667 2.48564 
43000 0.222615 0.479094 1.86597 0 0 2.56759 2.34512 
44000 0.214282 0.479122 1.73793 0 0 2.43129 2.21706 
45000 0.206388 0.479073 1.62067 0 0 2.30607 2.09967 
46000 0.198957 0.478978 1.51368 0 0 2.19155 1.99264 
47000 0.191894 0.478848 1.4154 0 0 2.08609 1.89432 
48000 0.185209 0.478645 1.32553 0 0 1.98936 1.80404 
49000 0.178905 0.478437 1.24346 0 0 1.90092 1.72188 
50000 0.172899 0.478155 1.16758 0 0 1.81865 1.64572 
51000 0.167186 0.47784 1.09785 0 0 1.74293 1.57568 
52000 0.161777 0.477498 1.03368 0 0 1.67298 1.51109 
53000 0.156595 0.477084 0.97392 0 0 1.60761 1.45092 
54000 0.151701 0.476711 0.918984 0 0 1.54734 1.39561 
55000 0.146964 0.476232 0.867526 0 0 1.49079 1.3437 
56000 0.142454 0.475778 0.819833 0 0 1.43812 1.29569 
57000 0.138205 0.475277 0.776047 0 0 1.38949 1.25124 
58000 0.134128 0.474751 0.735153 0 0 1.344 1.20994 
59000 0.130221 0.474223 0.696996 0 0 1.30146 1.17122 
60000 0.126425 0.473642 0.660778 0 0 1.26075 1.13442 
61000 0.122861 0.473064 0.627862 0 0 1.22377 1.10084 
62000 0.119402 0.472459 0.596508 0 0 1.18836 1.06896 
63000 0.116098 0.471803 0.567219 0 0 1.15512 1.03906 
64000 0.112924 0.471202 0.539952 0 0 1.12411 1.01116 
65000 0.109877 0.470538 0.514394 0 0 1.09472 0.984833 
66000 0.106958 0.469848 0.490347 0 0 1.067 0.960108 
67000 0.104152 0.469157 0.467671 0 0 1.04086 0.936812 
68000 0.101441 0.468488 0.446232 0 0 1.01616 0.914678 
69000 0.0988526 0.467779 0.426429 0 0 0.993129 0.894265 
70000 0.0963528 0.467062 0.407612 0 0 0.970966 0.874668 
71000 0.0939341 0.466333 0.389726 0 0 0.949817 0.855959 
72000 0.0915953 0.465584 0.372798 0 0 0.929952 0.838311 
73000 0.089376 0.464826 0.357098 0 0 0.911272 0.821944 
74000 0.0872249 0.464071 0.342148 0 0 0.893393 0.806242 
75000 0.0851353 0.46332 0.327883 0 0 0.876258 0.791146 
76000 0.0831265 0.462559 0.314514 0 0 0.860126 0.776967 
77000 0.0811969 0.461803 0.301835 0 0 0.844835 0.763596 
78000 0.0793241 0.461044 0.289702 0 0 0.830163 0.750811 
79000 0.0775132 0.46025 0.278469 0 0 0.816265 0.738698 
80000 0.0757549 0.459461 0.267487 0 0 0.802716 0.727023 
81000 0.074065 0.458667 0.257152 0 0 0.789886 0.715958 
82000 0.0724462 0.457888 0.247559 0 0 0.777923 0.705484 
83000 0.0708653 0.457086 0.23828 0 0 0.766286 0.695353 
84000 0.0693288 0.456258 0.229369 0 0 0.755032 0.685625 
85000 0.0678595 0.455471 0.221096 0 0 0.744476 0.676599 
86000 0.0664137 0.454686 0.213043 0 0 0.734169 0.667771 
87000 0.0650143 0.45388 0.205422 0 0 0.724373 0.659236 
88000 0.0636651 0.453073 0.198135 0 0 0.714905 0.651141 
89000 0.0623606 0.452264 0.191144 0 0 0.705728 0.643436 
90000 0.0611099 0.451434 0.184618 0 0 0.697147 0.636091 
91000 0.0598747 0.450601 0.178228 0 0 0.688732 0.628861 
92000 0.0586868 0.449801 0.17228 0 0 0.680785 0.622109 
93000 0.0575187 0.448996 0.166458 0 0 0.672977 0.61549 
94000 0.0563992 0.448179 0.160946 0 0 0.665511 0.609201 
95000 0.0553057 0.447364 0.155649 0 0 0.658282 0.603093 
96000 0.0542403 0.446552 0.150587 0 0 0.651311 0.597182 
97000 0.0532153 0.445736 0.145759 0 0 0.644686 0.591544 
98000 0.0522139 0.444917 0.14107 0 0 0.638264 0.586066 
99000 0.0512432 0.444107 0.13665 0 0 0.632046 0.580799 
100000 0.0502825 0.4433 0.132322 0 0 0.625896 0.575602 
101000 0.0493714 0.4425 0.12832 0 0 0.620178 0.570852 
102000 0.0484397 0.441658 0.124214 0 0 0.614323 0.565887 
103000 0.0475787 0.440838 0.120497 0 0 0.608929 0.561365 
104000 0.0467255 0.44002 0.116823 0 0 0.603586 0.556892 
105000 0.0459317 0.439232 0.113501 0 0 0.59866 0.552768 
106000 0.0451445 0.438447 0.110217 0 0 0.59378 0.548683 
107000 0.0443485 0.437624 0.10696 0 0 0.5889 0.544629 
108000 0.0435503 0.436791 0.103709 0 0 0.584019 0.540583 
109000 0.0428313 0.436015 0.100841 0 0 0.579649 0.536911 
110000 0.0421321 0.435252 0.0980686 0 0 0.575407 0.533333 
111000 0.0414238 0.434463 0.0953159 0 0 0.571169 0.529774 
112000 0.0407095 0.433656 0.0925763 0 0 0.566933 0.526229 
113000 0.0400283 0.432849 0.0899793 0 0 0.562844 0.522814 
114000 0.0393802 0.432042 0.0875247 0 0 0.5589 0.519529 
115000 0.038745 0.431247 0.085143 0 0 0.555065 0.516342 
116000 0.0381397 0.430475 0.0829313 0 0 0.551484 0.513381 
117000 0.0375343 0.429704 0.0807196 0 0 0.547903 0.51042 
118000 0.0369273 0.428889 0.0785413 0 0 0.544365 0.507429 
119000 0.0363203 0.428075 0.076363 0 0 0.540827 0.504439 
120000 0.0357642 0.42731 0.0744269 0 0 0.537543 0.501717 
121000 0.0352208 0.426559 0.0725514 0 0 0.534323 0.499062 
122000 0.0346867 0.425804 0.0707234 0 0 0.531171 0.496477 
123000 0.0341665 0.425045 0.0689668 0 0 0.52812 0.493995 
124000 0.0336463 0.424285 0.0672102 0 0 0.525068 0.491514 
125000 0.0331391 0.423518 0.0655489 0 0 0.522186 0.489042 
126000 0.032632 0.422751 0.0638875 0 0 0.519303 0.48657 
127000 0.032138 0.421969 0.0622876 0 0 0.516444 0.484199 
128000 0.0316527 0.421178 0.0607286 0 0 0.5136 0.481896 
129000 0.0311791 0.420396 0.0592106 0 0 0.510814 0.47963 
130000 0.0307515 0.419658 0.0578567 0 0 0.508254 0.477512 
131000 0.0303239 0.41892 0.0565029 0 0 0.505695 0.475395 
132000 0.0298892 0.418173 0.0551655 0 0 0.503183 0.473321 
133000 0.0294498 0.41742 0.0538391 0 0 0.500703 0.471276 
134000 0.0290156 0.416672 0.05253 0 0 0.498242 0.469248 
135000 0.0286291 0.415961 0.051376 0 0 0.495958 0.467367 
136000 0.0282427 0.41525 0.0502221 0 0 0.493674 0.465486 
137000 0.0278552 0.414524 0.0490809 0 0 0.491415 0.463614 
138000 0.0274662 0.413774 0.047959 0 0 0.489195 0.461756 
139000 0.0270773 0.413025 0.0468371 0 0 0.486974 0.459897 
140000 0.0267107 0.412274 0.0457955 0 0 0.484829 0.458085 
141000 0.0263498 0.411523 0.044774 0 0 0.482704 0.456285 
142000 0.0259912 0.410777 0.0437624 0 0 0.480593 0.454506 
143000 0.0256549 0.41007 0.0428403 0 0 0.478617 0.452911 
144000 0.0253186 0.409363 0.0419182 0 0 0.476641 0.451317 
145000 0.0249858 0.408657 0.0410108 0 0 0.474688 0.449725 
146000 0.0246612 0.40795 0.0401378 0 0 0.472787 0.448138 
147000 0.0243365 0.407243 0.0392648 0 0 0.470885 0.446551 
148000 0.0240248 0.406544 0.0384369 0 0 0.46904 0.445032 
149000 0.0237259 0.405851 0.0376542 0 0 0.46725 0.443581 
150000 0.023427 0.405158 0.0368714 0 0 0.46546 0.44213 
151000 0.0231299 0.404445 0.0361071 0 0 0.463614 0.440518 
152000 0.022848 0.403779 0.0353882 0 0 0.461917 0.439172 
153000 0.0225661 0.403113 0.0346693 0 0 0.460219 0.437826 
154000 0.0222899 0.402432 0.0339774 0 0 0.458572 0.436443 
155000 0.0220175 0.40174 0.0333034 0 0 0.45696 0.435035 
156000 0.0217451 0.401048 0.0326295 0 0 0.455348 0.433627 
157000 0.0214791 0.400356 0.0319778 0 0 0.453767 0.43228 
158000 0.0212174 0.399664 0.0313409 0 0 0.452208 0.430972 
159000 0.0209556 0.398973 0.030704 0 0 0.450649 0.429665 
160000 0.0207037 0.398294 0.030105 0 0 0.449132 0.428394 
161000 0.0204583 0.397624 0.0295311 0 0 0.447642 0.427148 
162000 0.0202128 0.396955 0.0289572 0 0 0.446152 0.425902 
163000 0.0199759 0.396291 0.0284066 0 0 0.44469 0.424689 
164000 0.0197474 0.395633 0.0278794 0 0 0.443254 0.423511 
165000 0.0195189 0.394975 0.0273521 0 0 0.441818 0.422333 
166000 0.0192947 0.394323 0.0268379 0 0 0.440408 0.421171 
167000 0.0190808 0.393685 0.0263542 0 0 0.439061 0.420049 
168000 0.0188668 0.393047 0.0258705 0 0 0.437713 0.418927 
169000 0.0186528 0.392409 0.0253868 0 0 0.436366 0.417804 
170000 0.0184464 0.391766 0.0249359 0 0 0.435096 0.416714 
171000 0.01824 0.391122 0.0244849 0 0 0.433826 0.415623 
172000 0.0180336 0.390478 0.024034 0 0 0.432556 0.414532 
173000 0.0178322 0.389839 0.0236019 0 0 0.431285 0.413458 
174000 0.0176328 0.389201 0.023178 0 0 0.430013 0.412391 
175000 0.0174335 0.388563 0.022754 0 0 0.42874 0.411324 
176000 0.0172416 0.387932 0.0223494 0 0 0.427509 0.410286 
177000 0.0170612 0.387311 0.0219738 0 0 0.42634 0.409293 
178000 0.0168807 0.38669 0.0215983 0 0 0.42517 0.408299 
179000 0.0167002 0.38607 0.0212227 0 0 0.424 0.407306 
180000 0.0165248 0.385454 0.0208664 0 0 0.422853 0.406325 
181000 0.0163499 0.384838 0.0205123 0 0 0.421707 0.405346 
182000 0.016175 0.384223 0.0201581 0 0 0.420562 0.404366 
183000 0.0160031 0.383606 0.0198126 0 0 0.419428 0.4034 
184000 0.0158354 0.382985 0.0194799 0 0 0.41831 0.402453 
185000 0.0156677 0.382364 0.0191472 0 0 0.417193 0.401506 
186000 0.0155 0.381744 0.0188145 0 0 0.416075 0.40056 
187000 0.0153447 0.381158 0.0185142 0 0 0.41503 0.399672 
188000 0.0151907 0.380575 0.0182175 0 0 0.413993 0.398792 
189000 0.0150368 0.379993 0.0179208 0 0 0.412956 0.397911 
190000 0.0148841 0.379408 0.0176277 0 0 0.411923 0.397033 
191000 0.0147361 0.378813 0.0173492 0 0 0.410907 0.396163 
192000 0.0145882 0.378218 0.0170706 0 0 0.409891 0.395292 
193000 0.0144403 0.377623 0.016792 0 0 0.408874 0.394422 
194000 0.0142971 0.377039 0.0165254 0 0 0.407879 0.393573 
195000 0.0141585 0.376468 0.0162706 0 0 0.406904 0.392746 
196000 0.01402 0.375896 0.0160158 0 0 0.40593 0.391919 
197000 0.0138814 0.375324 0.015761 0 0 0.404955 0.391092 
198000 0.0137456 0.374749 0.0155156 0 0 0.403999 0.390273 
199000 0.013611 0.374173 0.0152741 0 0 0.403051 0.389457 
200000 0.0134764 0.373596 0.0150326 0 0 0.402103 0.388641 
