#F PMMA.txt
#S 1 File written by xplot on Thu Mar 02 14:22:57 2023
#N 8
#L    PhotonEnergy [eV]  XCOM:Rayleigh(coherent)[cm^-1]  XCOM:Compton(incoherent)[cm^-1]  XCOM:PhotoElectric[cm^-1]  XCOM:PairProduction(NuclearField)[cm^-1]  XCOM:PairProduction(ElectronField)[cm^-1]  XCOM:TotalCrossSection[cm^-1]  XCOM:TotalCrossSection-Coh[cm^-1]
1000 1.3745 0.0170776 3323.02 0 0 3323.77 3323.02 
2000 1.09791 0.052578 479.253 0 0 480.328 479.303 
3000 0.834411 0.0869806 146.167 0 0 147.071 146.239 
4000 0.637199 0.114076 61.6897 0 0 62.4466 61.8059 
5000 0.499359 0.133965 31.2723 0 0 31.911 31.4022 
6000 0.403379 0.148473 17.8341 0 0 18.3853 17.983 
7000 0.334835 0.159324 11.0542 0 0 11.5485 11.2136 
8000 0.284236 0.167747 7.27555 0 0 7.72766 7.44284 
9000 0.245787 0.174505 5.02471 0 0 5.44561 5.1998 
10000 0.215581 0.180075 3.59928 0 0 3.99565 3.77891 
11000 0.191328 0.184764 2.66276 0 0 3.03832 2.84702 
12000 0.171197 0.188828 2.01587 0 0 2.37601 2.20461 
13000 0.154276 0.192314 1.5598 0 0 1.90633 1.75194 
14000 0.13995 0.195339 1.23089 0 0 1.56624 1.42626 
15000 0.127493 0.198018 0.985142 0 0 1.31048 1.18303 
16000 0.116695 0.200364 0.801068 0 0 1.11809 1.0014 
17000 0.107147 0.202409 0.658436 0 0 0.968058 0.860882 
18000 0.0987331 0.204247 0.547258 0 0 0.850354 0.751519 
19000 0.0912393 0.205831 0.459127 0 0 0.756229 0.665036 
20000 0.084489 0.207211 0.388307 0 0 0.680021 0.595489 
21000 0.0784766 0.208407 0.331471 0 0 0.618262 0.539871 
22000 0.0730662 0.209411 0.284955 0 0 0.567382 0.494288 
23000 0.0681568 0.2103 0.246129 0 0 0.524629 0.456473 
24000 0.0637354 0.211021 0.214364 0 0 0.489123 0.425457 
25000 0.0597354 0.211658 0.187713 0 0 0.459028 0.399406 
26000 0.0560687 0.212162 0.165091 0 0 0.433371 0.37725 
27000 0.0527183 0.212596 0.145873 0 0 0.411171 0.358454 
28000 0.04966 0.212933 0.129454 0 0 0.391991 0.342385 
29000 0.0468424 0.213204 0.115327 0 0 0.37542 0.328516 
30000 0.0442647 0.213387 0.103152 0 0 0.360802 0.316539 
31000 0.0418913 0.213507 0.0926283 0 0 0.34803 0.306157 
32000 0.0397098 0.213586 0.083458 0 0 0.336742 0.297067 
33000 0.0376868 0.213606 0.0754304 0 0 0.326737 0.289052 
34000 0.0358072 0.213602 0.0683652 0 0 0.31776 0.281949 
35000 0.0340681 0.213523 0.0621602 0 0 0.309744 0.275692 
36000 0.0324339 0.213412 0.0566044 0 0 0.302468 0.270013 
37000 0.0309396 0.213285 0.0517488 0 0 0.295961 0.26502 
38000 0.0295272 0.213113 0.0473483 0 0 0.290003 0.260466 
39000 0.0282236 0.212937 0.043495 0 0 0.284656 0.256417 
40000 0.02699 0.212714 0.0399793 0 0 0.279671 0.252677 
41000 0.0258485 0.212467 0.0368649 0 0 0.275183 0.24935 
42000 0.0247662 0.212205 0.0340444 0 0 0.27101 0.246262 
43000 0.0237563 0.211938 0.0315008 0 0 0.267183 0.243424 
44000 0.0228079 0.211649 0.029195 0 0 0.263629 0.240831 
45000 0.0219095 0.211329 0.0271022 0 0 0.260323 0.238419 
46000 0.021064 0.210979 0.0251975 0 0 0.257234 0.236198 
47000 0.0202665 0.21066 0.0234584 0 0 0.25437 0.234104 
48000 0.0195117 0.210298 0.0218721 0 0 0.251686 0.232159 
49000 0.0188016 0.209941 0.0204344 0 0 0.249191 0.230356 
50000 0.0181291 0.209568 0.0191106 0 0 0.246805 0.228679 
51000 0.0174909 0.209183 0.0179006 0 0 0.244556 0.227069 
52000 0.0168879 0.208794 0.0167894 0 0 0.242469 0.225574 
53000 0.0163115 0.208395 0.015756 0 0 0.240489 0.224168 
54000 0.015769 0.208012 0.0148136 0 0 0.238587 0.222837 
55000 0.0152479 0.20758 0.0139348 0 0 0.236774 0.221533 
56000 0.0147491 0.2072 0.013122 0 0 0.235064 0.220324 
57000 0.0142851 0.206781 0.0123799 0 0 0.233437 0.219154 
58000 0.0138367 0.206339 0.0116904 0 0 0.231877 0.218037 
59000 0.0134105 0.205924 0.0110489 0 0 0.230372 0.216975 
60000 0.0129977 0.205499 0.0104404 0 0 0.228944 0.215928 
61000 0.0126095 0.205069 0.0098906 0 0 0.227562 0.21495 
62000 0.0122353 0.204653 0.00937034 0 0 0.226247 0.213995 
63000 0.0118797 0.204217 0.0088825 0 0 0.224974 0.213095 
64000 0.0115378 0.203766 0.00843089 0 0 0.223728 0.212208 
65000 0.0112104 0.203336 0.00800951 0 0 0.222544 0.211352 
66000 0.010897 0.202893 0.00761408 0 0 0.2214 0.21052 
67000 0.0105961 0.202451 0.00724263 0 0 0.220294 0.209709 
68000 0.0103059 0.20204 0.00689373 0 0 0.219233 0.208916 
69000 0.0100312 0.201602 0.00657107 0 0 0.218198 0.208176 
70000 0.00976578 0.201166 0.0062646 0 0 0.217181 0.207423 
71000 0.00950882 0.200722 0.00597405 0 0 0.216186 0.206683 
72000 0.00926048 0.200259 0.00570069 0 0 0.21522 0.205987 
73000 0.00902465 0.199829 0.00544831 0 0 0.214302 0.205281 
74000 0.00879698 0.199391 0.00520864 0 0 0.213399 0.204598 
75000 0.00857694 0.198945 0.00498051 0 0 0.212506 0.203938 
76000 0.00836784 0.198507 0.00476723 0 0 0.211643 0.20329 
77000 0.00816548 0.198075 0.00456547 0 0 0.210801 0.202656 
78000 0.00796808 0.197645 0.00437254 0 0 0.209975 0.20203 
79000 0.00777674 0.197212 0.00419264 0 0 0.209179 0.201399 
80000 0.00759365 0.196778 0.00401975 0 0 0.208378 0.200793 
81000 0.00741884 0.196358 0.00385757 0 0 0.207627 0.200195 
82000 0.00724906 0.195918 0.0037063 0 0 0.206858 0.19962 
83000 0.00708354 0.195477 0.00355998 0 0 0.206107 0.199045 
84000 0.00692302 0.195037 0.00341948 0 0 0.205379 0.198472 
85000 0.00677007 0.194611 0.00328981 0 0 0.204673 0.197922 
86000 0.00662003 0.194186 0.00316385 0 0 0.203977 0.197375 
87000 0.00647627 0.193758 0.00304511 0 0 0.203305 0.196828 
88000 0.00633653 0.193335 0.00293196 0 0 0.202631 0.19628 
89000 0.00620035 0.192918 0.00282374 0 0 0.201953 0.195733 
90000 0.00607094 0.192501 0.00272242 0 0 0.201295 0.195212 
91000 0.00594344 0.192084 0.00262319 0 0 0.200644 0.194699 
92000 0.00582172 0.191663 0.00253149 0 0 0.200027 0.194201 
93000 0.00570191 0.191246 0.0024418 0 0 0.199407 0.193699 
94000 0.00558678 0.19084 0.00235701 0 0 0.198783 0.193186 
95000 0.00547424 0.190431 0.00227564 0 0 0.198173 0.19269 
96000 0.00536452 0.190018 0.00219799 0 0 0.197579 0.192211 
97000 0.00525928 0.189607 0.00212413 0 0 0.196995 0.191735 
98000 0.00515667 0.189197 0.00205251 0 0 0.196418 0.19126 
99000 0.00505729 0.188791 0.00198521 0 0 0.195847 0.190792 
100000 0.00495899 0.188386 0.00191936 0 0 0.195279 0.190326 
101000 0.00486663 0.187994 0.00185871 0 0 0.1947 0.189838 
102000 0.00477099 0.187581 0.00179651 0 0 0.194133 0.189369 
103000 0.00468336 0.187171 0.00174023 0 0 0.193595 0.188911 
104000 0.00459662 0.18676 0.00168461 0 0 0.193059 0.188454 
105000 0.00451562 0.186381 0.0016346 0 0 0.192547 0.188024 
106000 0.00443524 0.186004 0.00158521 0 0 0.192037 0.187597 
107000 0.00435411 0.185601 0.0015363 0 0 0.19151 0.187146 
108000 0.00427278 0.185191 0.00148752 0 0 0.190979 0.186689 
109000 0.00419959 0.184822 0.00144441 0 0 0.190486 0.186277 
110000 0.00412843 0.184462 0.00140273 0 0 0.190003 0.185875 
111000 0.00405699 0.184084 0.00136156 0 0 0.189507 0.185454 
112000 0.00398536 0.183694 0.00132072 0 0 0.189001 0.185019 
113000 0.00391658 0.183307 0.00128205 0 0 0.188507 0.184592 
114000 0.00385066 0.182925 0.00124554 0 0 0.188024 0.184174 
115000 0.00378621 0.182548 0.00121016 0 0 0.187547 0.183762 
116000 0.0037252 0.182183 0.00117738 0 0 0.187085 0.183363 
117000 0.00366418 0.181818 0.00114461 0 0 0.186624 0.182963 
118000 0.00360284 0.181436 0.00111246 0 0 0.186147 0.182561 
119000 0.0035415 0.181054 0.00108032 0 0 0.185671 0.18216 
120000 0.00348569 0.180695 0.00105182 0 0 0.185226 0.181771 
121000 0.00343126 0.180343 0.00102423 0 0 0.18479 0.181386 
122000 0.00337768 0.179991 0.000997282 0 0 0.184358 0.181002 
123000 0.00332535 0.179641 0.000971303 0 0 0.183934 0.180619 
124000 0.00327302 0.179291 0.000945324 0 0 0.18351 0.180236 
125000 0.00322249 0.178926 0.000921061 0 0 0.183071 0.179853 
126000 0.00317197 0.178561 0.000896797 0 0 0.182632 0.17947 
127000 0.00312256 0.1782 0.000873446 0 0 0.182198 0.179085 
128000 0.00307389 0.177841 0.000850704 0 0 0.181767 0.1787 
129000 0.00302629 0.177485 0.000828561 0 0 0.181342 0.178321 
130000 0.00298297 0.177141 0.000808821 0 0 0.180936 0.177965 
131000 0.00293966 0.176796 0.000789081 0 0 0.180531 0.177609 
132000 0.00289635 0.176455 0.000769648 0 0 0.180119 0.177237 
133000 0.00285305 0.176117 0.000750421 0 0 0.179704 0.176852 
134000 0.00281021 0.175779 0.000731449 0 0 0.179292 0.176472 
135000 0.00277143 0.175449 0.000714773 0 0 0.178921 0.176132 
136000 0.00273265 0.17512 0.000698097 0 0 0.178549 0.175792 
137000 0.00269392 0.174784 0.000681588 0 0 0.178166 0.175447 
138000 0.00265528 0.174439 0.00066533 0 0 0.177766 0.175097 
139000 0.00261664 0.174094 0.000649073 0 0 0.177367 0.174747 
140000 0.00258009 0.173754 0.00063406 0 0 0.176979 0.174401 
141000 0.00254405 0.173415 0.000619359 0 0 0.176594 0.174057 
142000 0.0025083 0.173077 0.000604801 0 0 0.17621 0.173712 
143000 0.00247507 0.172757 0.000591533 0 0 0.175837 0.173369 
144000 0.00244184 0.172437 0.000578265 0 0 0.175464 0.173026 
145000 0.00240891 0.172117 0.000565245 0 0 0.175091 0.172687 
146000 0.00237671 0.171797 0.000552808 0 0 0.17472 0.172356 
147000 0.00234451 0.171477 0.00054037 0 0 0.174349 0.172026 
148000 0.00231357 0.171161 0.000528547 0 0 0.173989 0.171695 
149000 0.00228389 0.17085 0.000517337 0 0 0.17364 0.171364 
150000 0.00225421 0.170538 0.000506127 0 0 0.173291 0.171032 
151000 0.00222476 0.170222 0.000495282 0 0 0.172946 0.17071 
152000 0.00219692 0.169923 0.000485022 0 0 0.172599 0.170401 
153000 0.00216907 0.169624 0.000474762 0 0 0.172253 0.170093 
154000 0.00214184 0.169314 0.000464902 0 0 0.171908 0.169777 
155000 0.00211502 0.168997 0.00045531 0 0 0.171565 0.169454 
156000 0.0020882 0.16868 0.000445718 0 0 0.171221 0.169132 
157000 0.00206196 0.16837 0.000436498 0 0 0.170875 0.168819 
158000 0.0020361 0.168067 0.000427526 0 0 0.170526 0.16851 
159000 0.00201024 0.167763 0.000418555 0 0 0.170178 0.168202 
160000 0.00198541 0.167465 0.000410068 0 0 0.169846 0.167892 
161000 0.00196127 0.167169 0.000401905 0 0 0.169525 0.16758 
162000 0.00193713 0.166874 0.000393743 0 0 0.169204 0.167268 
163000 0.00191379 0.166577 0.000385937 0 0 0.168883 0.166961 
164000 0.00189126 0.16628 0.000378488 0 0 0.168563 0.166659 
165000 0.00186873 0.165982 0.000371039 0 0 0.168243 0.166357 
166000 0.00184667 0.165691 0.0003638 0 0 0.167924 0.166061 
167000 0.00182572 0.165413 0.000357054 0 0 0.167607 0.165779 
168000 0.00180476 0.165135 0.000350308 0 0 0.16729 0.165498 
169000 0.0017838 0.164858 0.000343562 0 0 0.166974 0.165216 
170000 0.00176352 0.164569 0.000337239 0 0 0.166661 0.164923 
171000 0.00174324 0.164281 0.000330916 0 0 0.166349 0.16463 
172000 0.00172296 0.163992 0.000324592 0 0 0.166036 0.164337 
173000 0.00170323 0.163711 0.00031852 0 0 0.165731 0.164044 
174000 0.00168374 0.163434 0.000312555 0 0 0.165427 0.163751 
175000 0.00166425 0.163156 0.000306589 0 0 0.165124 0.163459 
176000 0.00164549 0.162879 0.000300916 0 0 0.164824 0.163172 
177000 0.00162785 0.162603 0.00029568 0 0 0.16453 0.162896 
178000 0.00161021 0.162327 0.000290444 0 0 0.164235 0.16262 
179000 0.00159257 0.162051 0.000285209 0 0 0.163941 0.162344 
180000 0.00157547 0.161778 0.000280267 0 0 0.163646 0.162064 
181000 0.00155843 0.161506 0.000275359 0 0 0.163352 0.161784 
182000 0.00154138 0.161234 0.00027045 0 0 0.163057 0.161504 
183000 0.00152459 0.160965 0.000265652 0 0 0.162763 0.161225 
184000 0.00150819 0.160699 0.00026102 0 0 0.162468 0.160949 
185000 0.00149178 0.160433 0.000256387 0 0 0.162174 0.160673 
186000 0.00147538 0.160167 0.000251755 0 0 0.161879 0.160397 
187000 0.00146024 0.159908 0.000247583 0 0 0.161608 0.160142 
188000 0.00144525 0.159649 0.000243462 0 0 0.161339 0.159889 
189000 0.00143025 0.15939 0.000239341 0 0 0.16107 0.159636 
190000 0.00141538 0.159131 0.000235278 0 0 0.160799 0.159381 
191000 0.00140101 0.158869 0.000231448 0 0 0.160519 0.15912 
192000 0.00138664 0.158608 0.000227617 0 0 0.160239 0.158859 
193000 0.00137226 0.158347 0.000223786 0 0 0.159958 0.158598 
194000 0.00135831 0.158091 0.000220115 0 0 0.159683 0.15834 
195000 0.00134477 0.157841 0.000216604 0 0 0.159412 0.158086 
196000 0.00133123 0.15759 0.000213093 0 0 0.15914 0.157831 
197000 0.00131769 0.15734 0.000209581 0 0 0.158869 0.157577 
198000 0.00130456 0.157093 0.000206204 0 0 0.158603 0.15732 
199000 0.00129161 0.156848 0.000202885 0 0 0.15834 0.157062 
200000 0.00127866 0.156603 0.000199566 0 0 0.158076 0.156804 
