#F Si
#S 1 File written by xplot on Mon Nov 21 18:36:40 2022
#N 8
#L    PhotonEnergy [eV]  XCOM:Rayleigh(coherent)[cm^-1]  XCOM:Compton(incoherent)[cm^-1]  XCOM:PhotoElectric[cm^-1]  XCOM:PairProduction(NuclearField)[cm^-1]  XCOM:PairProduction(ElectronField)[cm^-1]  XCOM:TotalCrossSection[cm^-1]  XCOM:TotalCrossSection-Coh[cm^-1]
1000 5.89032 0.0306806 3652.1 0 0 3658.09 3652.1 
2000 4.7727 0.0789372 6464.86 0 0 6469.85 6464.86 
3000 3.88841 0.115608 2275.69 0 0 2279.69 2275.69 
4000 3.2714 0.142936 1051.66 0 0 1055.16 1051.66 
5000 2.81526 0.165668 568.048 0 0 571.046 568.048 
6000 2.44905 0.186002 339.83 0 0 342.478 340.03 
7000 2.13905 0.204574 218.848 0 0 221.196 219.048 
8000 1.87301 0.221524 148.632 0 0 150.73 148.832 
9000 1.64484 0.236933 105.393 0 0 107.292 105.621 
10000 1.44985 0.250801 77.2386 0 0 78.9372 77.4884 
11000 1.28462 0.263153 58.2822 0 0 59.831 58.5772 
12000 1.14359 0.274232 44.9351 0 0 46.3535 45.2099 
13000 1.02401 0.284012 35.3333 0 0 36.6405 35.6181 
14000 0.922822 0.292632 28.2932 0 0 29.5099 28.5849 
15000 0.835336 0.300261 22.9467 0 0 24.0808 23.2465 
16000 0.760846 0.306909 18.8861 0 0 19.9514 19.1922 
17000 0.695568 0.31278 15.6951 0 0 16.7044 16.0098 
18000 0.639149 0.31798 13.1788 0 0 14.1379 13.4985 
19000 0.589734 0.322553 11.1633 0 0 12.0755 11.488 
20000 0.545566 0.32664 9.52742 0 0 10.4017 9.85216 
21000 0.506888 0.330265 8.1997 0 0 9.03586 8.52944 
22000 0.472374 0.333499 7.1072 0 0 7.91085 7.43694 
23000 0.441263 0.336409 6.18708 0 0 6.96124 6.52181 
24000 0.413575 0.338975 5.4226 0 0 6.17881 5.76233 
25000 0.388532 0.341307 4.78163 0 0 5.51343 5.12249 
26000 0.365653 0.343367 4.23211 0 0 4.94148 4.57518 
27000 0.34489 0.345249 3.76225 0 0 4.45246 4.10762 
28000 0.325866 0.346916 3.35808 0 0 4.03104 3.70497 
29000 0.308424 0.348458 3.00796 0 0 3.66459 3.35617 
30000 0.292367 0.349822 2.70435 0 0 3.34634 3.05407 
31000 0.277596 0.351052 2.44043 0 0 3.06918 2.79158 
32000 0.264021 0.352162 2.20929 0 0 2.82532 2.56154 
33000 0.251349 0.353163 2.00586 0 0 2.61028 2.35891 
34000 0.239602 0.354027 1.82548 0 0 2.41923 2.1798 
35000 0.228692 0.354813 1.66648 0 0 2.25018 2.02155 
36000 0.218423 0.355487 1.52369 0 0 2.09773 1.87941 
37000 0.208965 0.356092 1.39844 0 0 1.96361 1.75444 
38000 0.199994 0.356644 1.28442 0 0 1.8413 1.64111 
39000 0.191654 0.3571 1.18404 0 0 1.73292 1.54125 
40000 0.183754 0.357466 1.09213 0 0 1.6332 1.44985 
41000 0.17641 0.357781 1.01054 0 0 1.54488 1.36825 
42000 0.169417 0.358037 0.936054 0 0 1.46359 1.29382 
43000 0.162846 0.358248 0.868731 0 0 1.39003 1.22695 
44000 0.156641 0.358366 0.807776 0 0 1.32281 1.16625 
45000 0.150758 0.358482 0.752041 0 0 1.26126 1.11042 
46000 0.145211 0.358515 0.701347 0 0 1.2049 1.05956 
47000 0.139954 0.358515 0.654707 0 0 1.15316 1.01338 
48000 0.134995 0.358514 0.612125 0 0 1.10568 0.970834 
49000 0.130283 0.358408 0.573528 0 0 1.06231 0.931743 
50000 0.1258 0.358315 0.537572 0 0 1.02169 0.895788 
51000 0.121536 0.358144 0.504814 0 0 0.984387 0.862974 
52000 0.117516 0.357988 0.474544 0 0 0.95017 0.832387 
53000 0.113678 0.357784 0.44647 0 0 0.917895 0.804423 
54000 0.109995 0.35754 0.420688 0 0 0.888265 0.778195 
55000 0.106483 0.357255 0.396593 0 0 0.860288 0.753984 
56000 0.103167 0.356974 0.374321 0 0 0.834607 0.731105 
57000 0.0999841 0.356658 0.353872 0 0 0.810487 0.710594 
58000 0.0969707 0.356345 0.334805 0 0 0.787954 0.691249 
59000 0.094087 0.356004 0.317039 0 0 0.766929 0.672978 
60000 0.0912774 0.355617 0.300211 0 0 0.746906 0.655978 
61000 0.0886473 0.355227 0.284931 0 0 0.728912 0.640126 
62000 0.0860733 0.354806 0.270403 0 0 0.711471 0.625209 
63000 0.0836444 0.354391 0.25684 0 0 0.69502 0.611233 
64000 0.0813292 0.353944 0.244248 0 0 0.679585 0.598236 
65000 0.0790779 0.353504 0.232421 0 0 0.665019 0.586074 
66000 0.0769154 0.353047 0.221316 0 0 0.651279 0.574473 
67000 0.074845 0.352571 0.21089 0 0 0.638328 0.56346 
68000 0.0728619 0.352075 0.201088 0 0 0.626124 0.553163 
69000 0.0709826 0.351587 0.191953 0 0 0.614474 0.543391 
70000 0.0691472 0.351079 0.183305 0 0 0.603431 0.534208 
71000 0.0673685 0.350564 0.175107 0 0 0.592996 0.525499 
72000 0.065667 0.350057 0.16736 0 0 0.583221 0.517172 
73000 0.064065 0.349527 0.160161 0 0 0.573639 0.509669 
74000 0.0625058 0.348984 0.153316 0 0 0.564717 0.502363 
75000 0.0609837 0.348429 0.146796 0 0 0.5564 0.495227 
76000 0.0595123 0.347882 0.140705 0 0 0.548187 0.488623 
77000 0.0581064 0.347322 0.134941 0 0 0.540317 0.482314 
78000 0.056747 0.346757 0.129427 0 0 0.532747 0.47623 
79000 0.0554322 0.346198 0.124267 0 0 0.525845 0.470478 
80000 0.0541569 0.345625 0.119305 0 0 0.519087 0.46493 
81000 0.0529481 0.345047 0.11464 0 0 0.512778 0.459688 
82000 0.0517541 0.344482 0.110273 0 0 0.506493 0.454754 
83000 0.0506026 0.343891 0.106059 0 0 0.500488 0.449949 
84000 0.049501 0.34327 0.102024 0 0 0.494809 0.445295 
85000 0.0484427 0.342688 0.0982537 0 0 0.489402 0.440942 
86000 0.0474017 0.342108 0.0945861 0 0 0.484103 0.436694 
87000 0.0463995 0.34151 0.0911458 0 0 0.479047 0.432656 
88000 0.0454268 0.340903 0.0878564 0 0 0.474178 0.42876 
89000 0.0444801 0.34029 0.0847011 0 0 0.469474 0.424991 
90000 0.043577 0.339688 0.0817453 0 0 0.465022 0.421433 
91000 0.0426867 0.339089 0.0788485 0 0 0.460645 0.417937 
92000 0.041839 0.3385 0.076154 0 0 0.456519 0.414654 
93000 0.0410035 0.337905 0.0735285 0 0 0.452461 0.411426 
94000 0.0401975 0.337298 0.0710719 0 0 0.448569 0.408334 
95000 0.0394128 0.336684 0.0686927 0 0 0.444795 0.405352 
96000 0.0386513 0.336063 0.0663972 0 0 0.441149 0.40249 
97000 0.0379124 0.335448 0.0642252 0 0 0.437624 0.399706 
98000 0.0371869 0.334837 0.0621259 0 0 0.434169 0.396969 
99000 0.0364917 0.334234 0.060145 0 0 0.430886 0.394379 
100000 0.0358065 0.333635 0.0582037 0 0 0.42766 0.391838 
101000 0.0351573 0.33303 0.0564314 0 0 0.424607 0.389461 
102000 0.0344894 0.332399 0.0545908 0 0 0.421478 0.38699 
103000 0.0338696 0.331796 0.0529229 0 0 0.41858 0.384719 
104000 0.033255 0.331197 0.0512742 0 0 0.415707 0.382471 
105000 0.0326861 0.330601 0.0497861 0 0 0.413064 0.380383 
106000 0.0321223 0.330007 0.0483159 0 0 0.410447 0.378313 
107000 0.0315519 0.329388 0.0468627 0 0 0.407806 0.376241 
108000 0.0309799 0.328764 0.0454139 0 0 0.405158 0.374167 
109000 0.030464 0.328184 0.044134 0 0 0.402775 0.372318 
110000 0.0299621 0.327617 0.0428963 0 0 0.400459 0.370523 
111000 0.0294573 0.327018 0.0416704 0 0 0.398133 0.368707 
112000 0.0289505 0.3264 0.0404523 0 0 0.395802 0.366875 
113000 0.0284633 0.325795 0.0392972 0 0 0.393557 0.365107 
114000 0.0279955 0.325205 0.0382048 0 0 0.3914 0.363404 
115000 0.0275383 0.324616 0.0371457 0 0 0.38929 0.361749 
116000 0.027106 0.324029 0.0361638 0 0 0.387292 0.360207 
117000 0.0266738 0.323443 0.035182 0 0 0.385294 0.358665 
118000 0.0262378 0.32283 0.0342169 0 0 0.383295 0.357075 
119000 0.0258017 0.322216 0.0332517 0 0 0.381297 0.355485 
120000 0.0254065 0.321644 0.0323959 0 0 0.379465 0.354052 
121000 0.0250213 0.321082 0.0315674 0 0 0.377675 0.352657 
122000 0.0246412 0.32052 0.030758 0 0 0.375909 0.351279 
123000 0.0242686 0.319958 0.0299774 0 0 0.374182 0.349926 
124000 0.023896 0.319396 0.0291968 0 0 0.372454 0.348573 
125000 0.0235359 0.318813 0.028464 0 0 0.370788 0.347261 
126000 0.0231757 0.31823 0.0277313 0 0 0.369123 0.34595 
127000 0.0228231 0.317647 0.027026 0 0 0.367483 0.344663 
128000 0.0224755 0.317064 0.0263391 0 0 0.365859 0.343394 
129000 0.0221359 0.316487 0.02567 0 0 0.364268 0.342147 
130000 0.0218284 0.31593 0.0250724 0 0 0.362808 0.340994 
131000 0.021521 0.315372 0.0244748 0 0 0.361347 0.339841 
132000 0.0212109 0.314802 0.0238856 0 0 0.359888 0.338685 
133000 0.0208992 0.314222 0.0233021 0 0 0.358429 0.337526 
134000 0.020591 0.313647 0.0227262 0 0 0.356983 0.336379 
135000 0.0203153 0.31311 0.0222192 0 0 0.35565 0.335343 
136000 0.0200396 0.312574 0.0217122 0 0 0.354318 0.334306 
137000 0.0197627 0.312029 0.0212104 0 0 0.352988 0.333254 
138000 0.0194841 0.311471 0.0207166 0 0 0.351663 0.332178 
139000 0.0192055 0.310914 0.0202228 0 0 0.350337 0.331102 
140000 0.018944 0.310359 0.0197658 0 0 0.349065 0.330102 
141000 0.0186868 0.309804 0.019318 0 0 0.347807 0.329122 
142000 0.0184312 0.30925 0.0188745 0 0 0.346556 0.328144 
143000 0.0181904 0.308715 0.0184694 0 0 0.345379 0.327199 
144000 0.0179495 0.30818 0.0180644 0 0 0.344201 0.326253 
145000 0.0177118 0.307645 0.0176663 0 0 0.343029 0.325313 
146000 0.0174816 0.307109 0.0172845 0 0 0.341869 0.324385 
147000 0.0172515 0.306574 0.0169026 0 0 0.340709 0.323457 
148000 0.0170295 0.306047 0.0165408 0 0 0.3396 0.322563 
149000 0.0168156 0.305527 0.0161991 0 0 0.338541 0.321704 
150000 0.0166018 0.305007 0.0158574 0 0 0.337482 0.320845 
151000 0.016391 0.304458 0.0155247 0 0 0.336372 0.319995 
152000 0.0161895 0.303958 0.0152116 0 0 0.335357 0.319163 
153000 0.015988 0.303459 0.0148985 0 0 0.334341 0.31833 
154000 0.0157914 0.302949 0.0145964 0 0 0.333335 0.317517 
155000 0.0155983 0.302433 0.0143016 0 0 0.332336 0.316718 
156000 0.0154051 0.301917 0.0140069 0 0 0.331336 0.315919 
157000 0.0152149 0.3014 0.0137221 0 0 0.330347 0.315119 
158000 0.0150267 0.300884 0.013444 0 0 0.329365 0.31432 
159000 0.0148385 0.300368 0.0131659 0 0 0.328382 0.313521 
160000 0.0146588 0.299852 0.0129038 0 0 0.327428 0.312746 
161000 0.0144848 0.299336 0.0126524 0 0 0.326494 0.311989 
162000 0.0143107 0.29882 0.0124009 0 0 0.325559 0.311231 
163000 0.0141425 0.298321 0.0121613 0 0 0.324646 0.310494 
164000 0.0139801 0.297837 0.0119333 0 0 0.323757 0.309775 
165000 0.0138178 0.297353 0.0117054 0 0 0.322867 0.309057 
166000 0.0136582 0.296868 0.0114831 0 0 0.321994 0.308346 
167000 0.0135053 0.296384 0.0112742 0 0 0.321161 0.307649 
168000 0.0133524 0.2959 0.0110653 0 0 0.320329 0.306953 
169000 0.0131995 0.295415 0.0108564 0 0 0.319496 0.306256 
170000 0.0130526 0.294931 0.0106596 0 0 0.318663 0.30559 
171000 0.0129058 0.294446 0.0104627 0 0 0.317831 0.304924 
172000 0.0127589 0.293962 0.0102659 0 0 0.316998 0.304258 
173000 0.0126153 0.293477 0.0100786 0 0 0.316176 0.303581 
174000 0.012473 0.292993 0.00989546 0 0 0.315358 0.3029 
175000 0.0123306 0.292508 0.00971228 0 0 0.314541 0.302219 
176000 0.0121939 0.292035 0.0095367 0 0 0.313753 0.301564 
177000 0.0120654 0.291578 0.00937255 0 0 0.313011 0.300951 
178000 0.0119369 0.291121 0.00920839 0 0 0.312269 0.300337 
179000 0.0118085 0.290665 0.00904423 0 0 0.311527 0.299723 
180000 0.0116838 0.290195 0.00889036 0 0 0.310784 0.299096 
181000 0.0115597 0.289724 0.00873762 0 0 0.310042 0.298468 
182000 0.0114355 0.289253 0.00858489 0 0 0.3093 0.29784 
183000 0.011313 0.288787 0.00843558 0 0 0.308563 0.297224 
184000 0.0111931 0.288331 0.0082914 0 0 0.307835 0.296624 
185000 0.0110732 0.287874 0.00814723 0 0 0.307107 0.296025 
186000 0.0109533 0.287417 0.00800306 0 0 0.306379 0.295425 
187000 0.0108441 0.28697 0.00787441 0 0 0.305699 0.294855 
188000 0.0107361 0.286525 0.00774749 0 0 0.305024 0.294288 
189000 0.010628 0.286079 0.00762056 0 0 0.304348 0.29372 
190000 0.0105206 0.285634 0.00749498 0 0 0.303673 0.293153 
191000 0.0104152 0.285188 0.00737481 0 0 0.302998 0.292586 
192000 0.0103099 0.284742 0.00725463 0 0 0.302323 0.292019 
193000 0.0102046 0.284297 0.00713446 0 0 0.301648 0.291452 
194000 0.0101026 0.283857 0.00701915 0 0 0.300988 0.290899 
195000 0.010004 0.283423 0.00690872 0 0 0.300344 0.29036 
196000 0.00990541 0.282989 0.00679828 0 0 0.2997 0.289821 
197000 0.00980681 0.282556 0.00668784 0 0 0.299056 0.289282 
198000 0.00970987 0.282127 0.00658217 0 0 0.298422 0.288744 
199000 0.00961365 0.281702 0.00647855 0 0 0.297793 0.288208 
200000 0.00951743 0.281276 0.00637493 0 0 0.297164 0.287671 
