#F water.txt
#S 1 File written by xplot on Sun Nov 27 15:47:18 2022
#N 8
#L    PhotonEnergy [eV]  XCOM:Rayleigh(coherent)[cm^-1]  XCOM:Compton(incoherent)[cm^-1]  XCOM:PhotoElectric[cm^-1]  XCOM:PairProduction(NuclearField)[cm^-1]  XCOM:PairProduction(ElectronField)[cm^-1]  XCOM:TotalCrossSection[cm^-1]  XCOM:TotalCrossSection-Coh[cm^-1]
10000 0.230533 0.155026 4.9443 0 0 5.33143 5.09803 
10954.8 0.204189 0.158879 3.71782 0 0 4.08013 3.87619 
11909.5 0.182328 0.162162 2.84849 0 0 3.19305 3.01072 
12864.3 0.164322 0.164939 2.23148 0 0 2.56095 2.39648 
13819.1 0.14917 0.167347 1.77963 0 0 2.09597 1.94683 
14773.9 0.13611 0.169461 1.43788 0 0 1.74327 1.60738 
15728.6 0.124841 0.171302 1.17771 0 0 1.47381 1.34909 
16683.4 0.114936 0.172961 0.974736 0 0 1.26255 1.14766 
17638.2 0.106232 0.174414 0.815228 0 0 1.09584 0.989749 
18593 0.0984776 0.17572 0.687856 0 0 0.961965 0.863587 
19547.7 0.0915928 0.176851 0.585786 0 0 0.854246 0.762646 
20502.5 0.0853577 0.177887 0.501981 0 0 0.765333 0.67993 
21457.3 0.0797727 0.178747 0.433853 0 0 0.692207 0.612507 
22412.1 0.0746483 0.17955 0.37645 0 0 0.630565 0.556005 
23366.8 0.0699906 0.180224 0.328723 0 0 0.579068 0.508989 
24321.6 0.0657984 0.180829 0.288807 0 0 0.535515 0.469649 
25276.4 0.0619268 0.181338 0.254795 0 0 0.497894 0.436058 
26231.2 0.058394 0.181752 0.225877 0 0 0.466157 0.407558 
27185.9 0.0551343 0.182125 0.201098 0 0 0.438409 0.383256 
28140.7 0.052147 0.18243 0.179737 0 0 0.414176 0.362165 
29095.5 0.0493683 0.1827 0.161174 0 0 0.39337 0.343845 
30050.3 0.0468015 0.182882 0.144946 0 0 0.374634 0.327831 
31005 0.0444423 0.183028 0.130907 0 0 0.358371 0.313935 
31959.8 0.0422513 0.183132 0.118544 0 0 0.34393 0.30171 
32914.6 0.0402154 0.183213 0.107688 0 0 0.331117 0.290903 
33869.3 0.0383087 0.183252 0.0980218 0 0 0.319552 0.281276 
34824.1 0.0365358 0.183246 0.0895544 0 0 0.309324 0.272799 
35778.9 0.0348609 0.183205 0.0819016 0 0 0.299962 0.26511 
36733.7 0.0333321 0.183143 0.075171 0 0 0.29163 0.258311 
37688.4 0.0318824 0.183063 0.0690843 0 0 0.284019 0.252135 
38643.2 0.0305321 0.182933 0.0636522 0 0 0.27714 0.246584 
39598 0.0292488 0.18282 0.0586956 0 0 0.270751 0.241513 
40552.8 0.0280695 0.182642 0.0543211 0 0 0.26505 0.236984 
41507.5 0.0269484 0.18248 0.0503378 0 0 0.259772 0.232816 
42462.3 0.0258903 0.182295 0.0467137 0 0 0.25488 0.228984 
43417.1 0.0248892 0.182082 0.0433793 0 0 0.250341 0.225459 
44371.9 0.0239561 0.181872 0.0403969 0 0 0.246202 0.222267 
45326.6 0.0230605 0.181616 0.0376527 0 0 0.242311 0.219273 
46281.4 0.0222269 0.181372 0.0351637 0 0 0.238751 0.216533 
47236.2 0.0214334 0.181125 0.0328715 0 0 0.235417 0.213984 
48191 0.0206809 0.180848 0.0307773 0 0 0.232303 0.211622 
49145.7 0.0199707 0.180578 0.0288536 0 0 0.229413 0.209422 
50100.5 0.0192923 0.180293 0.0270733 0 0 0.226672 0.207362 
51055.3 0.0186495 0.180004 0.0254399 0 0 0.224078 0.205436 
52010.1 0.0180396 0.179712 0.0239369 0 0 0.22167 0.203628 
52964.8 0.0174547 0.179393 0.0225341 0 0 0.2194 0.201929 
53919.6 0.0169048 0.17911 0.0212491 0 0 0.217241 0.200359 
54874.4 0.0163753 0.17877 0.0200514 0 0 0.215192 0.198833 
55829.1 0.0158686 0.178462 0.0189393 0 0 0.21326 0.197414 
56783.9 0.015391 0.178137 0.0179143 0 0 0.211449 0.196055 
57738.7 0.0149333 0.17781 0.0169581 0 0 0.209706 0.194779 
58693.5 0.0144931 0.177488 0.016064 0 0 0.208035 0.193565 
59648.2 0.0140695 0.177159 0.0152231 0 0 0.206437 0.192376 
60603 0.0136677 0.176822 0.0144447 0 0 0.204927 0.191256 
61557.8 0.0132811 0.176481 0.0137198 0 0 0.203477 0.19019 
62512.6 0.0129132 0.17613 0.0130442 0 0 0.2021 0.189185 
63467.3 0.0125599 0.175791 0.0124069 0 0 0.200762 0.188202 
64422.1 0.0122186 0.175459 0.0118053 0 0 0.199465 0.187244 
65376.9 0.011887 0.175111 0.011241 0 0 0.198224 0.186335 
66331.7 0.0115749 0.174748 0.0107203 0 0 0.197053 0.18547 
67286.4 0.0112756 0.174401 0.0102284 0 0 0.195918 0.184632 
68241.2 0.0109866 0.174061 0.009762 0 0 0.194812 0.183818 
69196 0.0107064 0.173711 0.00932283 0 0 0.193737 0.183036 
70150.8 0.0104378 0.173361 0.00891128 0 0 0.192695 0.182259 
71105.5 0.0101779 0.173005 0.00851954 0 0 0.19169 0.181511 
72060.3 0.00992652 0.172639 0.00814717 0 0 0.190723 0.180799 
73015.1 0.00968719 0.172281 0.00780505 0 0 0.189795 0.180102 
73969.9 0.00945513 0.171925 0.00747826 0 0 0.188876 0.179421 
74924.6 0.0092299 0.171571 0.00716584 0 0 0.187968 0.178756 
75879.4 0.00901649 0.171225 0.00687509 0 0 0.187115 0.178105 
76834.2 0.00880885 0.170882 0.00659612 0 0 0.186284 0.17747 
77788.9 0.00860756 0.170542 0.00633014 0 0 0.185475 0.176853 
78743.7 0.00841252 0.170186 0.00608252 0 0 0.184676 0.176262 
79698.5 0.008222 0.169831 0.00584214 0 0 0.183885 0.175682 
80653.3 0.00804191 0.169481 0.00561818 0 0 0.183125 0.175104 
81608 0.00786789 0.169135 0.00540677 0 0 0.18239 0.174546 
82562.8 0.00769639 0.168789 0.00520035 0 0 0.181664 0.173999 
83517.6 0.00753282 0.168432 0.00500805 0 0 0.180967 0.173444 
84472.4 0.00737191 0.168084 0.0048219 0 0 0.180281 0.172906 
85427.1 0.0072162 0.167751 0.0046478 0 0 0.179619 0.172399 
86381.9 0.00706632 0.167409 0.00448081 0 0 0.178963 0.171884 
87336.7 0.00692017 0.167061 0.00431835 0 0 0.178309 0.171364 
88291.5 0.00678019 0.166721 0.0041688 0 0 0.177669 0.170871 
89246.2 0.00664182 0.16638 0.00402209 0 0 0.177033 0.170383 
90201 0.00651153 0.16603 0.0038853 0 0 0.176427 0.169905 
91155.8 0.00638262 0.165685 0.00375117 0 0 0.175827 0.169433 
92110.6 0.00625814 0.165359 0.00362565 0 0 0.175246 0.168981 
93065.3 0.0061364 0.165027 0.00350373 0 0 0.17467 0.168531 
94020.1 0.0060193 0.164685 0.00338788 0 0 0.174103 0.168083 
94974.9 0.00590425 0.164348 0.00327659 0 0 0.173539 0.167641 
95929.6 0.00579143 0.164017 0.00317031 0 0 0.17298 0.167207 
96884.4 0.00568326 0.163686 0.00306842 0 0 0.172435 0.166774 
97839.2 0.00557907 0.163357 0.00297029 0 0 0.171902 0.166343 
98794 0.00547674 0.163028 0.00287664 0 0 0.171382 0.165918 
99748.7 0.00537583 0.1627 0.00278636 0 0 0.170871 0.165499 
100704 0.00528076 0.162386 0.00270222 0 0 0.170352 0.165083 
101658 0.00518275 0.162043 0.00261688 0 0 0.169838 0.164656 
102613 0.00508995 0.16171 0.00253649 0 0 0.169339 0.16425 
103568 0.00500165 0.161384 0.00246037 0 0 0.168854 0.16386 
104523 0.00491588 0.161064 0.00238787 0 0 0.168379 0.163471 
105477 0.00483332 0.160751 0.00231993 0 0 0.167917 0.163082 
106432 0.00475053 0.160435 0.00225225 0 0 0.167453 0.162693 
107387 0.00466706 0.16011 0.00218538 0 0 0.16698 0.162303 
108342 0.00458514 0.159788 0.00211998 0 0 0.166514 0.161919 
109296 0.00451217 0.159489 0.00206296 0 0 0.166085 0.161562 
110251 0.0044392 0.15919 0.00200595 0 0 0.165656 0.161205 
111206 0.00436587 0.158882 0.00194972 0 0 0.165209 0.160836 
112161 0.00429248 0.158572 0.00189364 0 0 0.164759 0.160466 
113116 0.00422313 0.15826 0.00184135 0 0 0.164322 0.160104 
114070 0.00415599 0.157947 0.00179115 0 0 0.163893 0.159747 
115025 0.00409033 0.157638 0.00174273 0 0 0.16347 0.159395 
115980 0.00402752 0.157338 0.00169777 0 0 0.163059 0.159054 
116935 0.0039647 0.157038 0.00165281 0 0 0.162648 0.158713 
117889 0.00390194 0.156726 0.00160865 0 0 0.162234 0.158357 
118844 0.00383919 0.156413 0.00156454 0 0 0.161819 0.158 
119799 0.00378056 0.156114 0.00152433 0 0 0.161426 0.15766 
120754 0.00372438 0.155824 0.00148643 0 0 0.161045 0.15733 
121709 0.0036685 0.155534 0.00144878 0 0 0.160665 0.157001 
122663 0.00361499 0.155247 0.00141314 0 0 0.160282 0.156674 
123618 0.00356148 0.15496 0.0013775 0 0 0.159899 0.156346 
124573 0.00350878 0.154673 0.00134322 0 0 0.159516 0.156019 
125528 0.00345661 0.154385 0.00130984 0 0 0.159133 0.155692 
126482 0.00340463 0.154097 0.00127664 0 0 0.158751 0.155365 
127437 0.0033546 0.153794 0.00124539 0 0 0.158384 0.155035 
128392 0.00330457 0.15349 0.00121414 0 0 0.158017 0.154705 
129347 0.00325774 0.153201 0.00118524 0 0 0.157658 0.15439 
130302 0.00321329 0.152921 0.00115811 0 0 0.157304 0.154085 
131256 0.00316884 0.152641 0.00113098 0 0 0.156951 0.153781 
132211 0.00312429 0.152362 0.00110445 0 0 0.156596 0.153466 
133166 0.00307973 0.152084 0.00107802 0 0 0.156241 0.15315 
134121 0.00303627 0.151808 0.0010524 0 0 0.155892 0.152839 
135075 0.00299643 0.151541 0.00102947 0 0 0.155564 0.152548 
136030 0.0029566 0.151274 0.00100654 0 0 0.155235 0.152257 
136985 0.00291675 0.151002 0.000983841 0 0 0.154901 0.151966 
137940 0.00287687 0.150722 0.000961499 0 0 0.15456 0.151674 
138894 0.00283699 0.150442 0.000939157 0 0 0.154219 0.151382 
139849 0.00279909 0.150159 0.000918262 0 0 0.153886 0.151087 
140804 0.00276211 0.149876 0.000898047 0 0 0.153558 0.150792 
141759 0.00272513 0.149592 0.000877833 0 0 0.153229 0.150496 
142714 0.00269046 0.149329 0.000859302 0 0 0.152908 0.150212 
143668 0.00265618 0.149069 0.000841064 0 0 0.152589 0.149929 
144623 0.0026219 0.148809 0.000822825 0 0 0.15227 0.149646 
145578 0.00258867 0.148549 0.000805635 0 0 0.151953 0.149364 
146533 0.00255554 0.148289 0.000788536 0 0 0.151636 0.149081 
147487 0.0025224 0.148029 0.000771438 0 0 0.151319 0.148798 
148442 0.00249181 0.147771 0.000755968 0 0 0.15101 0.148527 
149397 0.00246125 0.147513 0.00074052 0 0 0.150701 0.148257 
150352 0.00242982 0.147239 0.000724884 0 0 0.150394 0.147974 
151307 0.00240093 0.146993 0.000710642 0 0 0.150098 0.147708 
152261 0.00237226 0.146751 0.000696492 0 0 0.149802 0.147445 
153216 0.00234358 0.146508 0.000682342 0 0 0.149507 0.147181 
154171 0.00231568 0.146255 0.000668965 0 0 0.149218 0.146915 
155126 0.00228797 0.146 0.000655773 0 0 0.148931 0.146649 
156080 0.00226026 0.145744 0.00064258 0 0 0.148643 0.146383 
157035 0.00223325 0.145491 0.000629954 0 0 0.148349 0.146119 
157990 0.00220661 0.145237 0.000617612 0 0 0.148051 0.145855 
158945 0.00217997 0.144984 0.000605271 0 0 0.147753 0.145591 
159900 0.00215426 0.144734 0.000593515 0 0 0.147466 0.14533 
160854 0.00212941 0.144487 0.000582292 0 0 0.147188 0.145073 
161809 0.00210456 0.14424 0.00057107 0 0 0.14691 0.144816 
162764 0.00208017 0.143995 0.00056011 0 0 0.146635 0.144561 
163719 0.002057 0.143756 0.000549836 0 0 0.146368 0.144311 
164673 0.00203383 0.143516 0.000539563 0 0 0.1461 0.144062 
165628 0.00201066 0.143277 0.000529289 0 0 0.145833 0.143813 
166583 0.00198885 0.143044 0.00051993 0 0 0.145562 0.14357 
167538 0.00196716 0.142812 0.000510645 0 0 0.145292 0.143328 
168492 0.00194547 0.14258 0.00050136 0 0 0.145021 0.143087 
169447 0.00192415 0.142348 0.000492347 0 0 0.144754 0.142845 
170402 0.00190323 0.142116 0.000483642 0 0 0.144493 0.142603 
171357 0.00188232 0.141884 0.000474937 0 0 0.144232 0.142361 
172312 0.00186141 0.141652 0.000466238 0 0 0.143971 0.142119 
173266 0.00184128 0.141419 0.000458017 0 0 0.143708 0.141878 
174221 0.00182114 0.141187 0.000449796 0 0 0.143445 0.141636 
175176 0.00180101 0.140955 0.000441575 0 0 0.143182 0.141394 
176131 0.00178192 0.140725 0.000433919 0 0 0.142928 0.14116 
177085 0.00176367 0.140497 0.000426715 0 0 0.142682 0.140932 
178040 0.00174542 0.140269 0.00041951 0 0 0.142436 0.140704 
178995 0.00172717 0.140041 0.000412306 0 0 0.14219 0.140476 
179950 0.00170949 0.139822 0.000405508 0 0 0.141943 0.14024 
180905 0.00169188 0.139603 0.000398759 0 0 0.141697 0.140003 
181859 0.00167428 0.139384 0.000392011 0 0 0.141451 0.139766 
182814 0.00165683 0.139163 0.000385345 0 0 0.141205 0.139531 
183769 0.00163996 0.138935 0.000378961 0 0 0.140958 0.139303 
184724 0.00162308 0.138707 0.000372578 0 0 0.140712 0.139075 
185678 0.00160621 0.138479 0.000366194 0 0 0.140466 0.138847 
186633 0.00159014 0.138262 0.000360196 0 0 0.140227 0.138625 
187588 0.00157469 0.138053 0.000354503 0 0 0.139994 0.138407 
188543 0.00155925 0.137844 0.00034881 0 0 0.139761 0.13819 
189497 0.00154381 0.137636 0.000343116 0 0 0.139529 0.137973 
190452 0.00152872 0.137422 0.000337717 0 0 0.139294 0.137756 
191407 0.0015138 0.137206 0.000332455 0 0 0.13906 0.137541 
192362 0.00149888 0.136991 0.000327193 0 0 0.138825 0.137325 
193317 0.00148396 0.136775 0.000321931 0 0 0.138591 0.137109 
194271 0.00146983 0.136571 0.000317005 0 0 0.138362 0.136898 
195226 0.0014559 0.136369 0.000312159 0 0 0.138136 0.136688 
196181 0.00144196 0.136168 0.000307312 0 0 0.137909 0.136478 
197136 0.00142802 0.135966 0.000302466 0 0 0.137682 0.136268 
198090 0.0014145 0.135759 0.000297854 0 0 0.137461 0.13606 
199045 0.00140107 0.135551 0.000293291 0 0 0.137241 0.135852 
200000 0.00138764 0.135343 0.000288728 0 0 0.137021 0.135644 
